emgT,emg,rms,mnf,mdf
0.000000,-0.048848,0.004885,0.000000,0.000000
1.000000,-0.047932,0.006844,0.000000,0.000000
2.000000,-0.047017,0.008303,0.000000,0.000000
3.000000,-0.048314,0.009606,0.000000,0.000000
4.000000,-0.045872,0.010646,0.000000,0.000000
5.000000,-0.044347,0.011532,0.000000,0.000000
6.000000,-0.045033,0.012380,0.000000,0.000000
7.000000,-0.045491,0.013190,0.000000,0.000000
8.000000,-0.043431,0.013886,1.307502,0.000000
9.000000,-0.048619,0.014713,1.319519,0.000000
10.000000,-0.042973,0.015328,1.338528,0.000000
11.000000,-0.044728,0.015967,1.364172,0.000000
12.000000,-0.043202,0.016541,1.398901,0.000000
13.000000,-0.042058,0.017067,1.443268,0.000000
14.000000,-0.042439,0.017587,1.495795,0.000000
15.000000,-0.044347,0.018138,1.556496,0.000000
16.000000,-0.041600,0.018609,1.628760,0.000000
17.000000,-0.040303,0.019040,1.702011,0.000000
18.000000,-0.041447,0.019486,1.792710,0.000000
19.000000,-0.039998,0.019892,1.889339,0.000000
20.000000,-0.039616,0.020283,1.997852,0.000000
21.000000,-0.040074,0.020675,2.118086,0.000000
22.000000,-0.040227,0.021063,2.246641,0.000000
23.000000,-0.039998,0.021439,2.378876,0.000000
24.000000,-0.038243,0.021777,2.527067,0.000000
25.000000,-0.037404,0.022096,2.688001,0.000000
26.000000,-0.038853,0.022435,2.853958,0.000000
27.000000,-0.037709,0.022750,3.033062,0.000000
28.000000,-0.036641,0.023043,3.221773,0.000000
29.000000,-0.036870,0.023336,3.416549,0.000000
30.000000,-0.036183,0.023615,3.617908,0.000000
31.000000,-0.037022,0.023904,3.826916,0.000000
32.000000,-0.034504,0.024151,4.050051,0.000000
33.000000,-0.034810,0.024401,4.283444,0.000000
34.000000,-0.035420,0.024657,4.515792,0.000000
35.000000,-0.037480,0.024940,4.758834,0.000000
36.000000,-0.033665,0.025166,5.012144,0.000000
37.000000,-0.034733,0.025405,5.268645,0.000000
38.000000,-0.030919,0.025592,5.532648,3.906250
39.000000,-0.032902,0.025803,5.795160,3.906250
40.000000,-0.033436,0.026018,6.074681,3.906250
41.000000,-0.033665,0.026235,6.354813,3.906250
42.000000,-0.032292,0.026433,6.632921,3.906250
43.000000,-0.031834,0.026624,6.899263,3.906250
44.000000,-0.031147,0.026806,7.189339,3.906250
45.000000,-0.027867,0.026950,7.472705,3.906250
46.000000,-0.032979,0.027151,7.779831,3.906250
47.000000,-0.030919,0.027327,8.073350,3.906250
48.000000,-0.030156,0.027493,8.361757,3.906250
49.000000,-0.030842,0.027665,8.646465,3.906250
50.000000,-0.029316,0.027820,8.937606,3.906250
51.000000,-0.026875,0.027950,9.228750,3.906250
52.000000,-0.029622,0.028106,9.521013,3.906250
53.000000,-0.026493,0.028231,9.831429,3.906250
54.000000,-0.029545,0.028385,10.103229,3.906250
55.000000,-0.029164,0.028534,10.384218,3.906250
56.000000,-0.026417,0.028656,10.665331,3.906250
57.000000,-0.028477,0.028797,10.936570,3.906250
58.000000,-0.029164,0.028945,11.212391,3.906250
59.000000,-0.027180,0.029072,11.498423,3.906250
60.000000,-0.025044,0.029180,11.760186,3.906250
61.000000,-0.028553,0.029319,12.035990,3.906250
62.000000,-0.025807,0.029433,12.285435,3.906250
63.000000,-0.028782,0.029573,12.530810,3.906250
64.000000,-0.025502,0.029683,12.786768,3.906250
65.000000,-0.024586,0.029784,13.022861,3.906250
66.000000,-0.024815,0.029887,13.247955,3.906250
67.000000,-0.026417,0.030004,13.478235,3.906250
68.000000,-0.026951,0.030125,13.714035,3.906250
69.000000,-0.026570,0.030242,13.922044,3.906250
70.000000,-0.025273,0.030347,14.138946,3.906250
71.000000,-0.025502,0.030454,14.332062,3.906250
72.000000,-0.024739,0.030554,14.536572,3.906250
73.000000,-0.024128,0.030650,14.738829,3.906250
74.000000,-0.021229,0.030723,14.932639,3.906250
75.000000,-0.024434,0.030820,15.111212,3.906250
76.000000,-0.021458,0.030895,15.280573,3.906250
77.000000,-0.024434,0.030991,15.445496,3.906250
78.000000,-0.024891,0.031091,15.610292,3.906250
79.000000,-0.022755,0.031174,15.767639,3.906250
80.000000,-0.021687,0.031249,15.922193,3.906250
81.000000,-0.020542,0.031317,16.073164,3.906250
82.000000,-0.020466,0.031384,16.230057,3.906250
83.000000,-0.021534,0.031457,16.367165,3.906250
84.000000,-0.022526,0.031538,16.510157,3.906250
85.000000,-0.019780,0.031600,16.635483,3.906250
86.000000,-0.021839,0.031675,16.753708,3.906250
87.000000,-0.020161,0.031739,16.874338,3.906250
88.000000,-0.018406,0.031793,16.993084,3.906250
89.000000,-0.019017,0.031850,17.109955,3.906250
90.000000,-0.020848,0.031918,17.221333,7.812500
91.000000,-0.017872,0.031968,17.323933,7.812500
92.000000,-0.019932,0.032030,17.418573,7.812500
93.000000,-0.017262,0.032076,17.516069,7.812500
94.000000,-0.019703,0.032137,17.602964,7.812500
95.000000,-0.021153,0.032206,17.689526,7.812500
96.000000,-0.016804,0.032250,17.775463,7.812500
97.000000,-0.015049,0.032285,17.854996,7.812500
98.000000,-0.017033,0.032330,17.925945,7.812500
99.000000,-0.019093,0.032386,17.998713,7.812500
100.000000,-0.029889,0.032155,18.062969,7.812500
101.000000,-0.025692,0.031899,18.127872,7.812500
102.000000,-0.027371,0.031670,18.184320,7.812500
103.000000,-0.027523,0.031420,18.234827,7.812500
104.000000,-0.027371,0.031203,18.288101,7.812500
105.000000,-0.024548,0.030984,18.339449,7.812500
106.000000,-0.027523,0.030778,18.384102,7.812500
107.000000,-0.026684,0.030557,18.422817,7.812500
108.000000,-0.026989,0.030367,18.448214,7.812500
109.000000,-0.027447,0.030101,18.476263,7.812500
110.000000,-0.024319,0.029891,18.501419,7.812500
111.000000,-0.023861,0.029651,18.525242,7.812500
112.000000,-0.025006,0.029441,18.548023,7.812500
113.000000,-0.025158,0.029247,18.571072,7.812500
114.000000,-0.025692,0.029052,18.591444,7.812500
115.000000,-0.027600,0.028844,18.611153,7.812500
116.000000,-0.023632,0.028640,18.629799,7.812500
117.000000,-0.024548,0.028461,18.647503,7.812500
118.000000,-0.026532,0.028282,18.664598,7.812500
119.000000,-0.024701,0.028107,18.680456,7.812500
120.000000,-0.026150,0.027949,18.695238,7.812500
121.000000,-0.022412,0.027750,18.709082,7.812500
122.000000,-0.024395,0.027565,18.722195,7.812500
123.000000,-0.024929,0.027387,18.735283,7.812500
124.000000,-0.024090,0.027226,18.746176,7.812500
125.000000,-0.023098,0.027066,18.756586,7.812500
126.000000,-0.025921,0.026911,18.767448,7.812500
127.000000,-0.025158,0.026764,18.776628,7.812500
128.000000,-0.024777,0.026628,18.786274,7.812500
129.000000,-0.023404,0.026475,18.792364,7.812500
130.000000,-0.023556,0.026332,18.799379,7.812500
131.000000,-0.021496,0.026159,18.806372,7.812500
132.000000,-0.024472,0.026046,18.812017,7.812500
133.000000,-0.021420,0.025901,18.815990,7.812500
134.000000,-0.022107,0.025752,18.822817,7.812500
135.000000,-0.021572,0.025569,18.828476,7.812500
136.000000,-0.022183,0.025444,18.831738,7.812500
137.000000,-0.021420,0.025296,18.829605,7.812500
138.000000,-0.023022,0.025212,18.824331,7.812500
139.000000,-0.020886,0.025084,18.812044,7.812500
140.000000,-0.021038,0.024949,18.801739,7.812500
141.000000,-0.022335,0.024821,18.783682,7.812500
142.000000,-0.020962,0.024699,18.763346,7.812500
143.000000,-0.020733,0.024581,18.738611,7.812500
144.000000,-0.020352,0.024467,18.713001,7.812500
145.000000,-0.017300,0.024370,18.679703,7.812500
146.000000,-0.019055,0.024221,18.650122,7.812500
147.000000,-0.020657,0.024111,18.611998,7.812500
148.000000,-0.018673,0.023995,18.572405,7.812500
149.000000,-0.022793,0.023904,18.533979,7.812500
150.000000,-0.020962,0.023816,18.489523,7.812500
151.000000,-0.019436,0.023744,18.439995,7.812500
152.000000,-0.018139,0.023628,18.389614,7.812500
153.000000,-0.017147,0.023542,18.330490,7.812500
154.000000,-0.017605,0.023422,18.271942,7.812500
155.000000,-0.019589,0.023322,18.216940,7.812500
156.000000,-0.019360,0.023253,18.155022,7.812500
157.000000,-0.017987,0.023148,18.101667,7.812500
158.000000,-0.019055,0.023042,18.041271,7.812500
159.000000,-0.016384,0.022940,17.975033,7.812500
160.000000,-0.018368,0.022877,17.905842,7.812500
161.000000,-0.018902,0.022776,17.833364,7.812500
162.000000,-0.019131,0.022710,17.758312,7.812500
163.000000,-0.017758,0.022597,17.689646,7.812500
164.000000,-0.017300,0.022519,17.620993,7.812500
165.000000,-0.015240,0.022436,17.546721,7.812500
166.000000,-0.017758,0.022369,17.476181,7.812500
167.000000,-0.020123,0.022304,17.394890,7.812500
168.000000,-0.016308,0.022200,17.324230,7.812500
169.000000,-0.018673,0.022120,17.254551,7.812500
170.000000,-0.017605,0.022045,17.184393,7.812500
171.000000,-0.017987,0.021971,17.105436,7.812500
172.000000,-0.015240,0.021884,17.033348,7.812500
173.000000,-0.014172,0.021797,16.952570,7.812500
174.000000,-0.017224,0.021762,16.889753,7.812500
175.000000,-0.019512,0.021712,16.831831,7.812500
176.000000,-0.019665,0.021695,16.761036,7.812500
177.000000,-0.016384,0.021619,16.699471,7.812500
178.000000,-0.014248,0.021523,16.639509,7.812500
179.000000,-0.013104,0.021442,16.584309,3.906250
180.000000,-0.015316,0.021387,16.523834,3.906250
181.000000,-0.017071,0.021356,16.471050,3.906250
182.000000,-0.015927,0.021318,16.418818,3.906250
183.000000,-0.015469,0.021265,16.383503,3.906250
184.000000,-0.013409,0.021188,16.354553,3.906250
185.000000,-0.012264,0.021131,16.316133,3.906250
186.000000,-0.015850,0.021078,16.278709,3.906250
187.000000,-0.015698,0.021040,16.248814,3.906250
188.000000,-0.014553,0.021009,16.223761,3.906250
189.000000,-0.013638,0.020967,16.219019,3.906250
190.000000,-0.011807,0.020897,16.206600,3.906250
191.000000,-0.011654,0.020853,16.199066,3.906250
192.000000,-0.014248,0.020806,16.198151,3.906250
193.000000,-0.012341,0.020771,16.192873,3.906250
194.000000,-0.014401,0.020728,16.203703,3.906250
195.000000,-0.014248,0.020669,16.225847,3.906250
196.000000,-0.010433,0.020627,16.256538,3.906250
197.000000,-0.012722,0.020611,16.279221,3.906250
198.000000,-0.013638,0.020586,16.310152,3.906250
199.000000,-0.013104,0.020539,16.337255,3.906250
200.000000,-0.016575,0.020388,16.388788,3.906250
201.000000,-0.020237,0.020326,16.442455,3.906250
202.000000,-0.017643,0.020218,16.507362,3.906250
203.000000,-0.018330,0.020114,16.571802,3.906250
204.000000,-0.017643,0.020004,16.627481,3.906250
205.000000,-0.015507,0.019914,16.696136,3.906250
206.000000,-0.019398,0.019818,16.775780,3.906250
207.000000,-0.018482,0.019724,16.856953,3.906250
208.000000,-0.018788,0.019629,16.954002,3.906250
209.000000,-0.019245,0.019531,17.065983,3.906250
210.000000,-0.018711,0.019469,17.181114,3.906250
211.000000,-0.017185,0.019399,17.290236,3.906250
212.000000,-0.017262,0.019314,17.407274,3.906250
213.000000,-0.015126,0.019209,17.510904,3.906250
214.000000,-0.015812,0.019102,17.623747,3.906250
215.000000,-0.020390,0.019011,17.739996,3.906250
216.000000,-0.017872,0.018948,17.859133,3.906250
217.000000,-0.017872,0.018873,17.981056,3.906250
218.000000,-0.020237,0.018795,18.100107,3.906250
219.000000,-0.016423,0.018704,18.211029,3.906250
220.000000,-0.017109,0.018600,18.317545,3.906250
221.000000,-0.018635,0.018558,18.423962,7.812500
222.000000,-0.014820,0.018456,18.524309,7.812500
223.000000,-0.016575,0.018362,18.633963,7.812500
224.000000,-0.015583,0.018270,18.738937,7.812500
225.000000,-0.014210,0.018179,18.838581,7.812500
226.000000,-0.018864,0.018092,18.934242,7.812500
227.000000,-0.017491,0.018001,19.025253,7.812500
228.000000,-0.016346,0.017905,19.109186,7.812500
229.000000,-0.016880,0.017831,19.195230,7.812500
230.000000,-0.017796,0.017764,19.267563,7.812500
231.000000,-0.016804,0.017714,19.335733,7.812500
232.000000,-0.014973,0.017608,19.404459,7.812500
233.000000,-0.012303,0.017520,19.468987,7.812500
234.000000,-0.014668,0.017442,19.530607,7.812500
235.000000,-0.017109,0.017392,19.583517,7.812500
236.000000,-0.014591,0.017312,19.620758,7.812500
237.000000,-0.014286,0.017238,19.659430,7.812500
238.000000,-0.016117,0.017160,19.694149,7.812500
239.000000,-0.015278,0.017100,19.725105,7.812500
240.000000,-0.015354,0.017040,19.752329,7.812500
241.000000,-0.015126,0.016960,19.777084,7.812500
242.000000,-0.014744,0.016895,19.798891,7.812500
243.000000,-0.015354,0.016837,19.819336,7.812500
244.000000,-0.013371,0.016767,19.836180,7.812500
245.000000,-0.011311,0.016716,19.850475,7.812500
246.000000,-0.015354,0.016678,19.862949,7.812500
247.000000,-0.016957,0.016636,19.872366,7.812500
248.000000,-0.012684,0.016580,19.879068,7.812500
249.000000,-0.014591,0.016487,19.883188,7.812500
250.000000,-0.014286,0.016415,19.884995,7.812500
251.000000,-0.013066,0.016352,19.885145,7.812500
252.000000,-0.014515,0.016316,19.881788,7.812500
253.000000,-0.013828,0.016284,19.876982,7.812500
254.000000,-0.014515,0.016254,19.870371,7.812500
255.000000,-0.016499,0.016220,19.859962,7.812500
256.000000,-0.012455,0.016152,19.849850,7.812500
257.000000,-0.013218,0.016106,19.834049,7.812500
258.000000,-0.013828,0.016052,19.817858,7.812500
259.000000,-0.012989,0.016021,19.800827,7.812500
260.000000,-0.011845,0.015959,19.780344,7.812500
261.000000,-0.014134,0.015910,19.757177,7.812500
262.000000,-0.012531,0.015844,19.735098,7.812500
263.000000,-0.015660,0.015822,19.709101,7.812500
264.000000,-0.013905,0.015789,19.716370,7.812500
265.000000,-0.009709,0.015745,19.717112,7.812500
266.000000,-0.014057,0.015707,19.713799,7.812500
267.000000,-0.012455,0.015628,19.704912,7.812500
268.000000,-0.012150,0.015590,19.697334,7.812500
269.000000,-0.013218,0.015534,19.679937,7.812500
270.000000,-0.011921,0.015480,19.661879,7.812500
271.000000,-0.011997,0.015422,19.638208,7.812500
272.000000,-0.012226,0.015395,19.613880,7.812500
273.000000,-0.010014,0.015362,19.587175,7.812500
274.000000,-0.012760,0.015318,19.559307,7.812500
275.000000,-0.014439,0.015262,19.524998,7.812500
276.000000,-0.012531,0.015187,19.489050,7.812500
277.000000,-0.010624,0.015135,19.453735,7.812500
278.000000,-0.011158,0.015109,19.413671,7.812500
279.000000,-0.012837,0.015107,19.369848,7.812500
280.000000,-0.013218,0.015087,19.324408,7.812500
281.000000,-0.013371,0.015050,19.271122,7.812500
282.000000,-0.012074,0.015014,19.218382,7.812500
283.000000,-0.012989,0.014990,19.168655,7.812500
284.000000,-0.012379,0.014982,19.113253,7.812500
285.000000,-0.010395,0.014967,19.068113,7.812500
286.000000,-0.011845,0.014930,19.016394,7.812500
287.000000,-0.013218,0.014906,18.958782,7.812500
288.000000,-0.012226,0.014885,18.898172,7.812500
289.000000,-0.012608,0.014876,18.834656,7.812500
290.000000,-0.014439,0.014900,18.770220,7.812500
291.000000,-0.011845,0.014901,18.712345,7.812500
292.000000,-0.011997,0.014881,18.655106,7.812500
293.000000,-0.010166,0.014865,18.593599,7.812500
294.000000,-0.011082,0.014836,18.535973,7.812500
295.000000,-0.013447,0.014829,18.467955,7.812500
296.000000,-0.009937,0.014825,18.411049,7.812500
297.000000,-0.008793,0.014797,18.355848,7.812500
298.000000,-0.012455,0.014786,18.300503,7.812500
299.000000,-0.011006,0.014769,18.238132,7.812500
300.000000,-0.015469,0.014757,18.182264,7.812500
301.000000,-0.013256,0.014678,18.118824,7.812500
302.000000,-0.014172,0.014640,18.073088,7.812500
303.000000,-0.012341,0.014577,18.032814,7.812500
304.000000,-0.012646,0.014525,17.980770,7.812500
305.000000,-0.010204,0.014478,17.938950,7.812500
306.000000,-0.013714,0.014413,17.897791,7.812500
307.000000,-0.013638,0.014359,17.862045,7.812500
308.000000,-0.012417,0.014290,17.819683,3.906250
309.000000,-0.015164,0.014240,17.785074,3.906250
310.000000,-0.014553,0.014192,17.752108,3.906250
311.000000,-0.014324,0.014160,17.736628,3.906250
312.000000,-0.013256,0.014117,17.727352,3.906250
313.000000,-0.011349,0.014081,17.708677,3.906250
314.000000,-0.010967,0.014035,17.689329,3.906250
315.000000,-0.013333,0.013950,17.676731,3.906250
316.000000,-0.010891,0.013878,17.669645,3.906250
317.000000,-0.015774,0.013853,17.681662,3.906250
318.000000,-0.015698,0.013794,17.685757,3.906250
319.000000,-0.014248,0.013769,17.694038,3.906250
320.000000,-0.013714,0.013731,17.707815,3.906250
321.000000,-0.013943,0.013676,17.716988,3.906250
322.000000,-0.011425,0.013643,17.742342,3.906250
323.000000,-0.014553,0.013620,17.777197,3.906250
324.000000,-0.012493,0.013588,17.819895,3.906250
325.000000,-0.011425,0.013562,17.852242,3.906250
326.000000,-0.013790,0.013500,17.891085,3.906250
327.000000,-0.013714,0.013457,17.925653,3.906250
328.000000,-0.013790,0.013428,17.983894,3.906250
329.000000,-0.015316,0.013409,18.042480,3.906250
330.000000,-0.015927,0.013386,18.112377,3.906250
331.000000,-0.012112,0.013335,18.179695,3.906250
332.000000,-0.014706,0.013332,18.236954,3.906250
333.000000,-0.010433,0.013316,18.306768,3.906250
334.000000,-0.012493,0.013294,18.385624,3.906250
335.000000,-0.013561,0.013253,18.464750,3.906250
336.000000,-0.013409,0.013240,18.559135,3.906250
337.000000,-0.012112,0.013219,18.667353,3.906250
338.000000,-0.014248,0.013197,18.776342,3.906250
339.000000,-0.013790,0.013181,18.880167,3.906250
340.000000,-0.013027,0.013156,18.989220,3.906250
341.000000,-0.012036,0.013124,19.085594,3.906250
342.000000,-0.011883,0.013095,19.190170,3.906250
343.000000,-0.013867,0.013078,19.296263,3.906250
344.000000,-0.011959,0.013064,19.404232,3.906250
345.000000,-0.011120,0.013063,19.514452,3.906250
346.000000,-0.010128,0.013012,19.620035,3.906250
347.000000,-0.011501,0.012952,19.716993,3.906250
348.000000,-0.011807,0.012944,19.809504,7.812500
349.000000,-0.012264,0.012919,19.900803,7.812500
350.000000,-0.013027,0.012906,19.986269,7.812500
351.000000,-0.011654,0.012893,20.079765,7.812500
352.000000,-0.010662,0.012855,20.168205,7.812500
353.000000,-0.008679,0.012810,20.251532,7.812500
354.000000,-0.010662,0.012772,20.331854,7.812500
355.000000,-0.012875,0.012730,20.405426,7.812500
356.000000,-0.011425,0.012720,20.472406,7.812500
357.000000,-0.010052,0.012691,20.540359,7.812500
358.000000,-0.010891,0.012663,20.594868,7.812500
359.000000,-0.010281,0.012638,20.646566,7.812500
360.000000,-0.011807,0.012638,20.697649,7.812500
361.000000,-0.009442,0.012594,20.744801,7.812500
362.000000,-0.011654,0.012585,20.789272,7.812500
363.000000,-0.011120,0.012537,20.824978,7.812500
364.000000,-0.011654,0.012514,20.850454,7.812500
365.000000,-0.007153,0.012497,20.876530,7.812500
366.000000,-0.014706,0.012504,20.899261,7.812500
367.000000,-0.011349,0.012494,20.918823,7.812500
368.000000,-0.011730,0.012490,20.934256,7.812500
369.000000,-0.011044,0.012469,20.947447,7.812500
370.000000,-0.008068,0.012438,20.958361,7.812500
371.000000,-0.010281,0.012422,20.968258,7.812500
372.000000,-0.011578,0.012416,20.974861,7.812500
373.000000,-0.009442,0.012411,20.981039,7.812500
374.000000,-0.012570,0.012410,20.982264,7.812500
375.000000,-0.013409,0.012398,20.981895,7.812500
376.000000,-0.012112,0.012394,20.979557,7.812500
377.000000,-0.009594,0.012385,20.975401,7.812500
378.000000,-0.009442,0.012371,20.970478,7.812500
379.000000,-0.010357,0.012348,20.964270,7.812500
380.000000,-0.009747,0.012316,20.953501,7.812500
381.000000,-0.012417,0.012306,20.942677,7.812500
382.000000,-0.012341,0.012308,20.930262,7.812500
383.000000,-0.009365,0.012275,20.913816,7.812500
384.000000,-0.010891,0.012261,20.899004,7.812500
385.000000,-0.008602,0.012247,20.878572,7.812500
386.000000,-0.011044,0.012240,20.858849,7.812500
387.000000,-0.011044,0.012218,20.838747,7.812500
388.000000,-0.011196,0.012208,20.815590,7.812500
389.000000,-0.011654,0.012199,20.789446,7.812500
390.000000,-0.010052,0.012155,20.765671,7.812500
391.000000,-0.008755,0.012128,20.738848,7.812500
392.000000,-0.010281,0.012113,20.746862,7.812500
393.000000,-0.010891,0.012119,20.748844,7.812500
394.000000,-0.009289,0.012104,20.746777,7.812500
395.000000,-0.010281,0.012073,20.739149,7.812500
396.000000,-0.010128,0.012074,20.734005,7.812500
397.000000,-0.009976,0.012084,20.718630,7.812500
398.000000,-0.009670,0.012058,20.703569,7.812500
399.000000,-0.007992,0.012034,20.683384,7.812500
400.000000,-0.013409,0.012010,20.662970,7.812500
401.000000,-0.012417,0.012001,20.640469,7.812500
402.000000,-0.011120,0.011968,20.617847,7.812500
403.000000,-0.011959,0.011965,20.588623,7.812500
404.000000,-0.010052,0.011940,20.558334,7.812500
405.000000,-0.009213,0.011932,20.529507,7.812500
406.000000,-0.010586,0.011900,20.496149,7.812500
407.000000,-0.014324,0.011908,20.459612,7.812500
408.000000,-0.012036,0.011904,20.421246,7.812500
409.000000,-0.011120,0.011859,20.374949,7.812500
410.000000,-0.010433,0.011816,20.330191,7.812500
411.000000,-0.010052,0.011772,20.289274,7.812500
412.000000,-0.012341,0.011762,20.242926,7.812500
413.000000,-0.010204,0.011751,20.208567,7.812500
414.000000,-0.012036,0.011762,20.167408,7.812500
415.000000,-0.012951,0.011757,20.119944,7.812500
416.000000,-0.010433,0.011753,20.069925,7.812500
417.000000,-0.010433,0.011694,20.017307,7.812500
418.000000,-0.010357,0.011634,19.964331,7.812500
419.000000,-0.011273,0.011601,19.919052,7.812500
420.000000,-0.010815,0.011571,19.874578,7.812500
421.000000,-0.011120,0.011540,19.826082,7.812500
422.000000,-0.009899,0.011526,19.782005,7.812500
423.000000,-0.010815,0.011485,19.726778,7.812500
424.000000,-0.011349,0.011473,19.684261,7.812500
425.000000,-0.008068,0.011444,19.643925,7.812500
426.000000,-0.010739,0.011411,19.603735,7.812500
427.000000,-0.011044,0.011382,19.555975,7.812500
428.000000,-0.010204,0.011345,19.515310,7.812500
429.000000,-0.011959,0.011304,19.466354,7.812500
430.000000,-0.010357,0.011239,19.436893,7.812500
431.000000,-0.010128,0.011220,19.413519,7.812500
432.000000,-0.008984,0.011159,19.376923,7.812500
433.000000,-0.007992,0.011139,19.351896,7.812500
434.000000,-0.011959,0.011133,19.326962,7.812500
435.000000,-0.013638,0.011134,19.307632,7.812500
436.000000,-0.009365,0.011093,19.280615,7.812500
437.000000,-0.009976,0.011071,19.261217,3.906250
438.000000,-0.009365,0.011019,19.243708,3.906250
439.000000,-0.009899,0.010977,19.244884,3.906250
440.000000,-0.007916,0.010928,19.252296,3.906250
441.000000,-0.011959,0.010927,19.248539,3.906250
442.000000,-0.013409,0.010945,19.242586,3.906250
443.000000,-0.013561,0.010941,19.242708,3.906250
444.000000,-0.012264,0.010945,19.248629,3.906250
445.000000,-0.005856,0.010904,19.274433,3.906250
446.000000,-0.007763,0.010884,19.290443,3.906250
447.000000,-0.010662,0.010876,19.309702,3.906250
448.000000,-0.009747,0.010855,19.333681,3.906250
449.000000,-0.011273,0.010845,19.350674,3.906250
450.000000,-0.014096,0.010858,19.384174,3.906250
451.000000,-0.009823,0.010840,19.426556,3.906250
452.000000,-0.010739,0.010841,19.476038,3.906250
453.000000,-0.008373,0.010838,19.513527,3.906250
454.000000,-0.009976,0.010832,19.556047,3.906250
455.000000,-0.013180,0.010835,19.591896,3.906250
456.000000,-0.009365,0.010815,19.652576,3.906250
457.000000,-0.009365,0.010809,19.711552,3.906250
458.000000,-0.011730,0.010818,19.781168,3.906250
459.000000,-0.011425,0.010830,19.847185,3.906250
460.000000,-0.010891,0.010820,19.899933,3.906250
461.000000,-0.009899,0.010824,19.965811,3.906250
462.000000,-0.008450,0.010794,20.040041,3.906250
463.000000,-0.011425,0.010797,20.112513,3.906250
464.000000,-0.011730,0.010798,20.201794,3.906250
465.000000,-0.008221,0.010806,20.305599,3.906250
466.000000,-0.009442,0.010747,20.408173,3.906250
467.000000,-0.012036,0.010754,20.504282,3.906250
468.000000,-0.011196,0.010749,20.605089,3.906250
469.000000,-0.010662,0.010745,20.691114,3.906250
470.000000,-0.012951,0.010792,20.786165,3.906250
471.000000,-0.007000,0.010766,20.881487,3.906250
472.000000,-0.009899,0.010749,20.978235,3.906250
473.000000,-0.008221,0.010739,21.077513,3.906250
474.000000,-0.009060,0.010704,21.171057,3.906250
475.000000,-0.011196,0.010679,21.254387,3.906250
476.000000,-0.009670,0.010654,21.332829,7.812500
477.000000,-0.009289,0.010651,21.409615,7.812500
478.000000,-0.011196,0.010668,21.479824,7.812500
479.000000,-0.009289,0.010658,21.560072,7.812500
480.000000,-0.010815,0.010668,21.634199,7.812500
481.000000,-0.010967,0.010652,21.703150,7.812500
482.000000,-0.009594,0.010624,21.769165,7.812500
483.000000,-0.010357,0.010633,21.827600,7.812500
484.000000,-0.009747,0.010622,21.879511,7.812500
485.000000,-0.006466,0.010607,21.932966,7.812500
486.000000,-0.010281,0.010599,21.971975,7.812500
487.000000,-0.011654,0.010606,22.008743,7.812500
488.000000,-0.011807,0.010613,22.045122,7.812500
489.000000,-0.012112,0.010618,22.077690,7.812500
490.000000,-0.011349,0.010631,22.108442,7.812500
491.000000,-0.008526,0.010629,22.130249,7.812500
492.000000,-0.009747,0.010624,22.141697,7.812500
493.000000,-0.007687,0.010596,22.154657,7.812500
494.000000,-0.009670,0.010599,22.164457,7.812500
495.000000,-0.014401,0.010647,22.171368,7.812500
496.000000,-0.012036,0.010667,22.174423,7.812500
497.000000,-0.009823,0.010665,22.175545,7.812500
498.000000,-0.009976,0.010668,22.175098,7.812500
499.000000,-0.008602,0.010673,22.174622,7.812500
500.000000,-0.010014,0.010636,22.171045,7.812500
501.000000,-0.011616,0.010627,22.167788,7.812500
502.000000,-0.011387,0.010629,22.159958,7.812500
503.000000,-0.011997,0.010630,22.150715,7.812500
504.000000,-0.010929,0.010639,22.140207,7.812500
505.000000,-0.007115,0.010622,22.128582,7.812500
506.000000,-0.010472,0.010621,22.116755,7.812500
507.000000,-0.010243,0.010574,22.104357,7.812500
508.000000,-0.008946,0.010543,22.087568,7.812500
509.000000,-0.012837,0.010563,22.071062,7.812500
510.000000,-0.011082,0.010569,22.053848,7.812500
511.000000,-0.009861,0.010568,22.033115,7.812500
512.000000,-0.009098,0.010535,22.014456,7.812500
513.000000,-0.006352,0.010504,21.991001,7.812500
514.000000,-0.008793,0.010472,21.968609,7.812500
515.000000,-0.012608,0.010468,21.946358,7.812500
516.000000,-0.009251,0.010457,21.921743,7.812500
517.000000,-0.008183,0.010437,21.894217,7.812500
518.000000,-0.010472,0.010438,21.870005,7.812500
519.000000,-0.007572,0.010404,21.843489,7.812500
520.000000,-0.009174,0.010389,21.853874,7.812500
521.000000,-0.010319,0.010380,21.858843,7.812500
522.000000,-0.011006,0.010392,21.860023,7.812500
523.000000,-0.008946,0.010374,21.855572,7.812500
524.000000,-0.009098,0.010352,21.854549,7.812500
525.000000,-0.006580,0.010341,21.843693,7.812500
526.000000,-0.010166,0.010335,21.833439,7.812500
527.000000,-0.011311,0.010338,21.818962,7.812500
528.000000,-0.009022,0.010327,21.804571,7.812500
529.000000,-0.010700,0.010313,21.788132,7.812500
530.000000,-0.009022,0.010301,21.772528,7.812500
531.000000,-0.007801,0.010280,21.750628,7.812500
532.000000,-0.010548,0.010295,21.728188,7.812500
533.000000,-0.008869,0.010302,21.708265,7.812500
534.000000,-0.011006,0.010292,21.683723,7.812500
535.000000,-0.013371,0.010288,21.656340,7.812500
536.000000,-0.008564,0.010281,21.627882,7.812500
537.000000,-0.006123,0.010251,21.591230,7.812500
538.000000,-0.010777,0.010265,21.557283,7.812500
539.000000,-0.010319,0.010269,21.528318,7.812500
540.000000,-0.009632,0.010284,21.493710,7.812500
541.000000,-0.011006,0.010273,21.472408,7.812500
542.000000,-0.009632,0.010231,21.444302,7.812500
543.000000,-0.011616,0.010207,21.409971,7.812500
544.000000,-0.010853,0.010191,21.374077,7.812500
545.000000,-0.007496,0.010201,21.336237,7.812500
546.000000,-0.010090,0.010222,21.297878,7.812500
547.000000,-0.011387,0.010230,21.268404,7.812500
548.000000,-0.010319,0.010235,21.240297,7.812500
549.000000,-0.011769,0.010241,21.207970,7.812500
550.000000,-0.009861,0.010191,21.181150,7.812500
551.000000,-0.009403,0.010187,21.142729,7.812500
552.000000,-0.010472,0.010184,21.118280,7.812500
553.000000,-0.009556,0.010195,21.097013,7.812500
554.000000,-0.008946,0.010185,21.076136,7.812500
555.000000,-0.013523,0.010190,21.046919,7.812500
556.000000,-0.011006,0.010206,21.025702,7.812500
557.000000,-0.009861,0.010211,20.995277,7.812500
558.000000,-0.012226,0.010217,20.986378,7.812500
559.000000,-0.009632,0.010198,20.984558,7.812500
560.000000,-0.006733,0.010162,20.967817,7.812500
561.000000,-0.010624,0.010169,20.963514,7.812500
562.000000,-0.008106,0.010167,20.959822,7.812500
563.000000,-0.010014,0.010152,20.961107,7.812500
564.000000,-0.011616,0.010150,20.954849,7.812500
565.000000,-0.006886,0.010141,20.956345,3.906250
566.000000,-0.008183,0.010130,20.959272,3.906250
567.000000,-0.010777,0.010115,20.982182,3.906250
568.000000,-0.008640,0.010090,21.011820,3.906250
569.000000,-0.010548,0.010089,21.027615,3.906250
570.000000,-0.007877,0.010037,21.041151,3.906250
571.000000,-0.007954,0.010044,21.060148,3.906250
572.000000,-0.007191,0.010021,21.084124,3.906250
573.000000,-0.007877,0.010018,21.129961,3.906250
574.000000,-0.007572,0.010006,21.163633,3.906250
575.000000,-0.012226,0.010018,21.199274,3.906250
576.000000,-0.008335,0.010006,21.238953,3.906250
577.000000,-0.006733,0.009985,21.269110,3.906250
578.000000,-0.011006,0.009983,21.316292,3.906250
579.000000,-0.007801,0.009970,21.372047,3.906250
580.000000,-0.010319,0.009965,21.433893,3.906250
581.000000,-0.011387,0.009970,21.481417,3.906250
582.000000,-0.009709,0.009971,21.532841,3.906250
583.000000,-0.008946,0.009957,21.574699,3.906250
584.000000,-0.010472,0.009964,21.642567,3.906250
585.000000,-0.007038,0.009968,21.707048,3.906250
586.000000,-0.010929,0.009975,21.781094,3.906250
587.000000,-0.013600,0.010000,21.850008,3.906250
588.000000,-0.009251,0.009973,21.902435,3.906250
589.000000,-0.012379,0.009976,21.967621,3.906250
590.000000,-0.011006,0.009972,22.040770,3.906250
591.000000,-0.011082,0.009997,22.110573,3.906250
592.000000,-0.011463,0.010016,22.197344,3.906250
593.000000,-0.009632,0.010032,22.298922,3.906250
594.000000,-0.010395,0.010040,22.397717,3.906250
595.000000,-0.012455,0.010014,22.487963,3.906250
596.000000,-0.009709,0.009988,22.582523,3.906250
597.000000,-0.009327,0.009984,22.659599,3.906250
598.000000,-0.012531,0.010012,22.745716,3.906250
599.000000,-0.009480,0.010020,22.831345,3.906250
600.000000,-0.012493,0.010048,22.917755,3.906250
601.000000,-0.010281,0.010033,23.006275,3.906250
602.000000,-0.011501,0.010035,23.088013,3.906250
603.000000,-0.011273,0.010026,23.158056,7.812500
604.000000,-0.008373,0.010002,23.222452,7.812500
605.000000,-0.007687,0.010006,23.284763,7.812500
606.000000,-0.010433,0.010006,23.339588,7.812500
607.000000,-0.010662,0.010010,23.405310,7.812500
608.000000,-0.010815,0.010028,23.464184,7.812500
609.000000,-0.011044,0.010007,23.517488,7.812500
610.000000,-0.010281,0.009998,23.567562,7.812500
611.000000,-0.007305,0.009977,23.609680,7.812500
612.000000,-0.007153,0.009961,23.645075,7.812500
613.000000,-0.007382,0.009968,23.682440,7.812500
614.000000,-0.010510,0.009984,23.704458,7.812500
615.000000,-0.013943,0.010002,23.724352,7.812500
616.000000,-0.009213,0.010002,23.744213,7.812500
617.000000,-0.008221,0.010002,23.760321,7.812500
618.000000,-0.008450,0.009983,23.775034,7.812500
619.000000,-0.007229,0.009980,23.780888,7.812500
620.000000,-0.006847,0.009962,23.776043,7.812500
621.000000,-0.010815,0.009967,23.773344,7.812500
622.000000,-0.010662,0.009963,23.767754,7.812500
623.000000,-0.010052,0.009974,23.759499,7.812500
624.000000,-0.010204,0.009984,23.748030,7.812500
625.000000,-0.005169,0.009976,23.735083,7.812500
626.000000,-0.009670,0.009971,23.721186,7.812500
627.000000,-0.010586,0.009963,23.707932,7.812500
628.000000,-0.008068,0.009955,23.692062,7.812500
629.000000,-0.010662,0.009955,23.676880,7.812500
630.000000,-0.011273,0.009978,23.657810,7.812500
631.000000,-0.008679,0.009985,23.637804,7.812500
632.000000,-0.010204,0.009981,23.617138,7.812500
633.000000,-0.007305,0.009969,23.596119,7.812500
634.000000,-0.008373,0.009943,23.575308,7.812500
635.000000,-0.010891,0.009913,23.554609,7.812500
636.000000,-0.008679,0.009914,23.530077,7.812500
637.000000,-0.008831,0.009934,23.506344,7.812500
638.000000,-0.011273,0.009940,23.482639,7.812500
639.000000,-0.011044,0.009947,23.456007,7.812500
640.000000,-0.008068,0.009933,23.432152,7.812500
641.000000,-0.010662,0.009930,23.403889,7.812500
642.000000,-0.007992,0.009915,23.377388,7.812500
643.000000,-0.010967,0.009908,23.351654,7.812500
644.000000,-0.009899,0.009898,23.324139,7.812500
645.000000,-0.006161,0.009888,23.294289,7.812500
646.000000,-0.009442,0.009882,23.268545,7.812500
647.000000,-0.011578,0.009884,23.240913,7.812500
648.000000,-0.007763,0.009861,23.253275,7.812500
649.000000,-0.010281,0.009844,23.260353,7.812500
650.000000,-0.010891,0.009855,23.264290,7.812500
651.000000,-0.007153,0.009836,23.262775,7.812500
652.000000,-0.010052,0.009832,23.265640,7.812500
653.000000,-0.007382,0.009813,23.258881,7.812500
654.000000,-0.009976,0.009823,23.253239,7.812500
655.000000,-0.011578,0.009798,23.243633,7.812500
656.000000,-0.008373,0.009772,23.235008,7.812500
657.000000,-0.007458,0.009751,23.224781,7.812500
658.000000,-0.009899,0.009724,23.216017,7.812500
659.000000,-0.009442,0.009722,23.201420,7.812500
660.000000,-0.009747,0.009748,23.186764,7.812500
661.000000,-0.008297,0.009725,23.175573,7.812500
662.000000,-0.008755,0.009731,23.159969,7.812500
663.000000,-0.007763,0.009710,23.141806,7.812500
664.000000,-0.012570,0.009722,23.123575,7.812500
665.000000,-0.007610,0.009728,23.097176,7.812500
666.000000,-0.009976,0.009744,23.074129,7.812500
667.000000,-0.011273,0.009750,23.057089,7.812500
668.000000,-0.009213,0.009755,23.034508,7.812500
669.000000,-0.012264,0.009775,23.026827,7.812500
670.000000,-0.008373,0.009779,23.012474,7.812500
671.000000,-0.008373,0.009783,22.992176,7.812500
672.000000,-0.008679,0.009795,22.970488,7.812500
673.000000,-0.007992,0.009796,22.947361,7.812500
674.000000,-0.008755,0.009806,22.924088,7.812500
675.000000,-0.014553,0.009837,22.910807,7.812500
676.000000,-0.010815,0.009862,22.899603,7.812500
677.000000,-0.009518,0.009884,22.884109,7.812500
678.000000,-0.010662,0.009881,22.875158,7.812500
679.000000,-0.009213,0.009893,22.854046,7.812500
680.000000,-0.009976,0.009889,22.848278,7.812500
681.000000,-0.010433,0.009879,22.846268,7.812500
682.000000,-0.010433,0.009886,22.844921,7.812500
683.000000,-0.010052,0.009897,22.834635,7.812500
684.000000,-0.011578,0.009909,22.833221,7.812500
685.000000,-0.006771,0.009907,22.821941,7.812500
686.000000,-0.011349,0.009912,22.834017,7.812500
687.000000,-0.011044,0.009880,22.853876,7.812500
688.000000,-0.009518,0.009883,22.857397,7.812500
689.000000,-0.011959,0.009877,22.874218,7.812500
690.000000,-0.011196,0.009880,22.891554,7.812500
691.000000,-0.009670,0.009865,22.914059,7.812500
692.000000,-0.011120,0.009861,22.927841,7.812500
693.000000,-0.008221,0.009848,22.949852,7.812500
694.000000,-0.009365,0.009838,22.972713,7.812500
695.000000,-0.013180,0.009847,23.016848,3.906250
696.000000,-0.008602,0.009837,23.067682,3.906250
697.000000,-0.008907,0.009833,23.102386,3.906250
698.000000,-0.012570,0.009833,23.133923,3.906250
699.000000,-0.007458,0.009816,23.170635,3.906250
700.000000,-0.009251,0.009780,23.211527,3.906250
701.000000,-0.010548,0.009783,23.275503,3.906250
702.000000,-0.011463,0.009782,23.324825,3.906250
703.000000,-0.009556,0.009764,23.374868,3.906250
704.000000,-0.012150,0.009804,23.428148,3.906250
705.000000,-0.004978,0.009786,23.469767,3.906250
706.000000,-0.008564,0.009768,23.528564,3.906250
707.000000,-0.011006,0.009772,23.595581,3.906250
708.000000,-0.008793,0.009752,23.667618,3.906250
709.000000,-0.011616,0.009758,23.721960,3.906250
710.000000,-0.009861,0.009754,23.779028,3.906250
711.000000,-0.008488,0.009764,23.824234,3.906250
712.000000,-0.008564,0.009775,23.896307,3.906250
713.000000,-0.007801,0.009778,23.963619,3.906250
714.000000,-0.007343,0.009749,24.039801,3.906250
715.000000,-0.011921,0.009722,24.108463,3.906250
716.000000,-0.008183,0.009713,24.157644,3.906250
717.000000,-0.008183,0.009713,24.219179,3.906250
718.000000,-0.010548,0.009733,24.288242,3.906250
719.000000,-0.009098,0.009749,24.352533,3.906250
720.000000,-0.008640,0.009763,24.433987,3.906250
721.000000,-0.010243,0.009757,24.530495,3.906250
722.000000,-0.007877,0.009731,24.622932,3.906250
723.000000,-0.007496,0.009707,24.704725,3.906250
724.000000,-0.011616,0.009723,24.790400,3.906250
725.000000,-0.004520,0.009720,24.856003,3.906250
726.000000,-0.009327,0.009717,24.930563,3.906250
727.000000,-0.011540,0.009728,25.004053,3.906250
728.000000,-0.007801,0.009725,25.077799,3.906250
729.000000,-0.012608,0.009749,25.153173,7.812500
730.000000,-0.010548,0.009740,25.220819,7.812500
731.000000,-0.007572,0.009731,25.275459,7.812500
732.000000,-0.007572,0.009707,25.323578,7.812500
733.000000,-0.006809,0.009704,25.369413,7.812500
734.000000,-0.010166,0.009721,25.406954,7.812500
735.000000,-0.012837,0.009744,25.456228,7.812500
736.000000,-0.012226,0.009782,25.498230,7.812500
737.000000,-0.008183,0.009777,25.534206,7.812500
738.000000,-0.010243,0.009765,25.566889,7.812500
739.000000,-0.010777,0.009762,25.591394,7.812500
740.000000,-0.012150,0.009805,25.608891,7.812500
741.000000,-0.013981,0.009846,25.628897,7.812500
742.000000,-0.012531,0.009893,25.632746,7.812500
743.000000,-0.012684,0.009914,25.634682,7.812500
744.000000,-0.010700,0.009922,25.637152,7.812500
745.000000,-0.006733,0.009926,25.636240,7.812500
746.000000,-0.012074,0.009954,25.634291,7.812500
747.000000,-0.012455,0.009965,25.623423,7.812500
748.000000,-0.010777,0.009993,25.601578,7.812500
749.000000,-0.012226,0.010015,25.582497,7.812500
750.000000,-0.010929,0.010015,25.561167,7.812500
751.000000,-0.009632,0.010036,25.537745,7.812500
752.000000,-0.010700,0.010043,25.511715,7.812500
753.000000,-0.007877,0.010047,25.485050,7.812500
754.000000,-0.010624,0.010053,25.457794,7.812500
755.000000,-0.011311,0.010050,25.431805,7.812500
756.000000,-0.003452,0.010021,25.403906,7.812500
757.000000,-0.001240,0.009994,25.377274,7.812500
758.000000,-0.002079,0.009947,25.347445,7.812500
759.000000,-0.002232,0.009905,25.317770,7.812500
760.000000,-0.003986,0.009865,25.287922,7.812500
761.000000,-0.006428,0.009851,25.258495,7.812500
762.000000,-0.003529,0.009818,25.229906,7.812500
763.000000,-0.005283,0.009802,25.202076,7.812500
764.000000,-0.006962,0.009746,25.171450,7.812500
765.000000,-0.000248,0.009716,25.142506,7.812500
766.000000,-0.002003,0.009667,25.114155,7.812500
767.000000,-0.003758,0.009608,25.083302,7.812500
768.000000,-0.004215,0.009573,25.056055,7.812500
769.000000,-0.004444,0.009505,25.024891,7.812500
770.000000,-0.008030,0.009502,24.996256,7.812500
771.000000,-0.002918,0.009469,24.969185,7.812500
772.000000,-0.006123,0.009449,24.941038,7.812500
773.000000,-0.008183,0.009451,24.910667,7.812500
774.000000,-0.010395,0.009467,24.885435,7.812500
775.000000,-0.013066,0.009446,24.859055,7.812500
776.000000,-0.013905,0.009486,24.876129,7.812500
777.000000,-0.010624,0.009498,24.888565,7.812500
778.000000,-0.013981,0.009541,24.898516,7.812500
779.000000,-0.010700,0.009556,24.902519,7.812500
780.000000,-0.012455,0.009585,24.912601,7.812500
781.000000,-0.015583,0.009655,24.913506,7.812500
782.000000,-0.013600,0.009694,24.916368,7.812500
783.000000,-0.013600,0.009737,24.916370,7.812500
784.000000,-0.012989,0.009755,24.918077,7.812500
785.000000,-0.013142,0.009820,24.918402,7.812500
786.000000,-0.012760,0.009837,24.921333,7.812500
787.000000,-0.014439,0.009881,24.918663,7.812500
788.000000,-0.014820,0.009946,24.916836,7.812500
789.000000,-0.014057,0.009974,24.919891,7.812500
790.000000,-0.014668,0.010019,24.918535,7.812500
791.000000,-0.013218,0.010059,24.915123,7.812500
792.000000,-0.013218,0.010084,24.912476,7.812500
793.000000,-0.010929,0.010110,24.901682,7.812500
794.000000,-0.011158,0.010128,24.895300,7.812500
795.000000,-0.013752,0.010136,24.896202,7.812500
796.000000,-0.011311,0.010162,24.891739,7.812500
797.000000,-0.007496,0.010151,24.904089,7.812500
798.000000,-0.009556,0.010118,24.909904,7.812500
799.000000,-0.009098,0.010132,24.909967,7.812500
800.000000,-0.012074,0.010161,24.909182,7.812500
801.000000,-0.010624,0.010162,24.907438,7.812500
802.000000,-0.011769,0.010165,24.906223,7.812500
803.000000,-0.010777,0.010178,24.916403,7.812500
804.000000,-0.011158,0.010166,24.929455,7.812500
805.000000,-0.005665,0.010170,24.938534,7.812500
806.000000,-0.009861,0.010182,24.955170,7.812500
807.000000,-0.007954,0.010153,24.959072,7.812500
808.000000,-0.007191,0.010141,24.980062,7.812500
809.000000,-0.007496,0.010102,25.005503,7.812500
810.000000,-0.010090,0.010104,25.032047,7.812500
811.000000,-0.005436,0.010083,25.049170,7.812500
812.000000,-0.010548,0.010102,25.076153,7.812500
813.000000,-0.009861,0.010120,25.092688,7.812500
814.000000,-0.010548,0.010148,25.134735,7.812500
815.000000,-0.013905,0.010173,25.185427,7.812500
816.000000,-0.012379,0.010215,25.218122,7.812500
817.000000,-0.011921,0.010252,25.265284,7.812500
818.000000,-0.013371,0.010285,25.312704,7.812500
819.000000,-0.009174,0.010286,25.365633,7.812500
820.000000,-0.008717,0.010286,25.408388,7.812500
821.000000,-0.005970,0.010253,25.459671,7.812500
822.000000,-0.005741,0.010238,25.511301,7.812500
823.000000,-0.005970,0.010228,25.585659,7.812500
824.000000,-0.015507,0.010280,25.666498,7.812500
825.000000,-0.016804,0.010407,25.728609,3.906250
826.000000,-0.005741,0.010381,25.785908,3.906250
827.000000,0.002499,0.010319,25.848038,3.906250
828.000000,0.007305,0.010316,25.913643,3.906250
829.000000,0.003567,0.010244,26.003372,3.906250
830.000000,-0.000401,0.010190,26.075430,3.906250
831.000000,0.000591,0.010162,26.146801,3.906250
832.000000,-0.000172,0.010134,26.219530,3.906250
833.000000,0.000591,0.010111,26.277439,3.906250
834.000000,0.001659,0.010061,26.353191,3.906250
835.000000,-0.001850,0.009981,26.436710,3.906250
836.000000,0.007916,0.009937,26.523741,3.906250
837.000000,0.012493,0.009982,26.588690,3.906250
838.000000,0.005169,0.009943,26.654510,3.906250
839.000000,0.006390,0.009905,26.704773,3.906250
840.000000,0.002575,0.009833,26.782820,3.906250
841.000000,-0.003605,0.009740,26.853502,3.906250
842.000000,-0.010929,0.009721,26.931273,3.906250
843.000000,-0.004826,0.009650,26.999325,3.906250
844.000000,-0.003758,0.009598,27.041843,3.906250
845.000000,0.001049,0.009574,27.094046,3.906250
846.000000,-0.004673,0.009510,27.153986,3.906250
847.000000,-0.007954,0.009461,27.206291,3.906250
848.000000,-0.015965,0.009534,27.276077,3.906250
849.000000,-0.017414,0.009614,27.363913,3.906250
850.000000,-0.013828,0.009652,27.446976,3.906250
851.000000,-0.007954,0.009636,27.513773,3.906250
852.000000,-0.004902,0.009589,27.584646,3.906250
853.000000,-0.003605,0.009564,27.629168,3.906250
854.000000,-0.008259,0.009540,27.685072,7.812500
855.000000,-0.010014,0.009526,27.740194,7.812500
856.000000,-0.013294,0.009612,27.797932,7.812500
857.000000,-0.015812,0.009740,27.857855,7.812500
858.000000,-0.017796,0.009899,27.906929,7.812500
859.000000,-0.013523,0.009989,27.938442,7.812500
860.000000,-0.005818,0.009998,27.962395,7.812500
861.000000,0.000057,0.009977,27.983309,7.812500
862.000000,-0.001164,0.009972,27.995657,7.812500
863.000000,-0.006046,0.009976,28.022480,7.812500
864.000000,-0.014744,0.010060,28.041626,7.812500
865.000000,-0.014210,0.010160,28.056118,7.812500
866.000000,-0.014210,0.010257,28.067381,7.812500
867.000000,-0.015888,0.010373,28.068783,7.812500
868.000000,-0.009709,0.010409,28.061510,7.812500
869.000000,-0.013752,0.010490,28.055763,7.812500
870.000000,-0.015888,0.010580,28.032751,7.812500
871.000000,-0.013676,0.010664,28.009922,7.812500
872.000000,-0.016728,0.010777,27.991373,7.812500
873.000000,-0.019017,0.010913,27.969667,7.812500
874.000000,-0.021534,0.011074,27.947815,7.812500
875.000000,-0.021763,0.011210,27.918575,7.812500
876.000000,-0.023289,0.011365,27.876703,7.812500
877.000000,-0.017414,0.011448,27.839684,7.812500
878.000000,-0.021077,0.011556,27.800901,7.812500
879.000000,-0.018330,0.011652,27.759623,7.812500
880.000000,-0.020085,0.011758,27.718306,7.812500
881.000000,-0.019017,0.011808,27.677828,7.812500
882.000000,-0.018864,0.011880,27.637814,7.812500
883.000000,-0.017185,0.011927,27.599976,7.812500
884.000000,-0.015354,0.011955,27.560879,7.812500
885.000000,-0.014591,0.011972,27.523270,7.812500
886.000000,-0.015278,0.012001,27.483490,7.812500
887.000000,-0.019780,0.012077,27.444826,7.812500
888.000000,-0.017414,0.012112,27.407019,7.812500
889.000000,-0.014363,0.012115,27.370474,7.812500
890.000000,-0.010624,0.012073,27.335997,7.812500
891.000000,-0.009709,0.012040,27.303644,7.812500
892.000000,-0.011540,0.012022,27.269476,7.812500
893.000000,-0.012150,0.012034,27.238672,7.812500
894.000000,-0.013600,0.012059,27.209770,7.812500
895.000000,-0.016804,0.012098,27.178473,7.812500
896.000000,-0.017796,0.012175,27.152702,7.812500
897.000000,-0.012760,0.012219,27.124073,7.812500
898.000000,-0.012608,0.012247,27.100319,7.812500
899.000000,-0.008946,0.012246,27.080280,7.812500
900.000000,-0.008030,0.012212,27.059683,7.812500
901.000000,-0.007420,0.012189,27.038021,7.812500
902.000000,-0.007343,0.012154,27.023350,7.812500
903.000000,-0.006046,0.012121,27.008026,7.812500
904.000000,-0.012303,0.012132,27.038355,7.812500
905.000000,-0.013218,0.012191,27.067173,7.812500
906.000000,-0.013371,0.012224,27.094046,7.812500
907.000000,-0.011311,0.012251,27.118084,7.812500
908.000000,-0.007572,0.012253,27.149918,7.812500
909.000000,-0.001469,0.012231,27.172655,7.812500
910.000000,0.004025,0.012196,27.199974,7.812500
911.000000,0.003491,0.012189,27.226908,7.812500
912.000000,0.005703,0.012156,27.253866,7.812500
913.000000,0.005932,0.012131,27.281305,7.812500
914.000000,0.005016,0.012095,27.313070,7.812500
915.000000,-0.002232,0.012017,27.339771,7.812500
916.000000,0.002804,0.011957,27.371298,7.812500
917.000000,0.002728,0.011900,27.410755,7.812500
918.000000,-0.000553,0.011825,27.450100,7.812500
919.000000,-0.001164,0.011790,27.489023,7.812500
920.000000,0.006924,0.011778,27.529724,7.812500
921.000000,0.007076,0.011784,27.562981,7.812500
922.000000,0.010586,0.011818,27.602644,7.812500
923.000000,0.007000,0.011823,27.649027,7.812500
924.000000,0.008907,0.011755,27.692656,7.812500
925.000000,0.007992,0.011662,27.754805,7.812500
926.000000,0.001812,0.011649,27.810644,7.812500
927.000000,-0.001316,0.011647,27.861311,7.812500
928.000000,-0.002918,0.011628,27.915319,7.812500
929.000000,-0.004597,0.011631,27.968102,7.812500
930.000000,-0.005512,0.011644,28.023357,7.812500
931.000000,-0.005818,0.011659,28.090782,7.812500
932.000000,-0.000782,0.011659,28.161743,7.812500
933.000000,-0.000019,0.011659,28.229118,7.812500
934.000000,-0.003147,0.011662,28.304132,7.812500
935.000000,-0.002766,0.011664,28.366150,7.812500
936.000000,-0.003452,0.011642,28.446621,7.812500
937.000000,-0.005207,0.011586,28.532112,7.812500
938.000000,-0.008106,0.011603,28.619080,7.812500
939.000000,-0.010929,0.011637,28.696482,7.812500
940.000000,-0.010472,0.011681,28.784180,7.812500
941.000000,-0.004520,0.011684,28.860603,7.812500
942.000000,-0.005207,0.011645,28.963488,7.812500
943.000000,-0.011234,0.011689,29.074965,7.812500
944.000000,-0.021229,0.011874,29.166782,7.812500
945.000000,-0.018940,0.012024,29.272993,7.812500
946.000000,-0.014744,0.012105,29.378574,7.812500
947.000000,-0.014210,0.012162,29.488914,7.812500
948.000000,-0.012226,0.012119,29.587017,7.812500
949.000000,-0.012303,0.012056,29.692347,7.812500
950.000000,-0.013447,0.012051,29.795929,7.812500
951.000000,-0.014897,0.012117,29.921753,7.812500
952.000000,-0.019627,0.012265,30.052935,7.812500
953.000000,-0.023671,0.012486,30.161631,7.812500
954.000000,-0.027562,0.012760,30.262478,7.812500
955.000000,-0.029469,0.013058,30.365580,7.812500
956.000000,-0.029545,0.013322,30.469234,7.812500
957.000000,-0.025349,0.013468,30.594841,7.812500
958.000000,-0.022450,0.013538,30.698795,7.812500
959.000000,-0.025196,0.013703,30.798557,7.812500
960.000000,-0.020619,0.013845,30.896248,7.812500
961.000000,-0.013066,0.013907,30.974697,7.812500
962.000000,-0.017796,0.014020,31.067337,7.812500
963.000000,-0.024739,0.014224,31.162848,7.812500
964.000000,-0.024281,0.014354,31.257307,7.812500
965.000000,-0.022755,0.014463,31.325586,7.812500
966.000000,-0.022984,0.014576,31.391394,7.812500
967.000000,-0.022984,0.014670,31.436134,7.812500
968.000000,-0.017262,0.014739,31.506880,7.812500
969.000000,-0.015736,0.014759,31.566353,7.812500
970.000000,-0.011387,0.014718,31.628763,7.812500
971.000000,-0.004368,0.014660,31.676022,7.812500
972.000000,-0.004292,0.014571,31.693129,7.812500
973.000000,-0.008488,0.014471,31.717861,7.812500
974.000000,-0.013218,0.014371,31.745991,7.812500
975.000000,-0.013371,0.014268,31.762411,7.812500
976.000000,-0.009937,0.014112,31.795473,7.812500
977.000000,-0.003834,0.014009,31.843622,7.812500
978.000000,-0.002232,0.013852,31.885906,7.812500
979.000000,-0.006123,0.013743,31.914577,7.812500
980.000000,-0.009174,0.013627,31.942814,7.812500
981.000000,-0.011234,0.013540,31.940853,7.812500
982.000000,-0.010929,0.013453,31.946815,7.812500
983.000000,-0.009556,0.013376,31.949308,7.812500
984.000000,-0.007115,0.013307,31.953621,7.812500
985.000000,-0.005131,0.013237,31.961195,7.812500
986.000000,-0.005283,0.013159,31.956076,7.812500
987.000000,-0.006733,0.013027,31.930885,7.812500
988.000000,-0.005436,0.012921,31.897429,7.812500
989.000000,-0.011387,0.012892,31.857109,7.812500
990.000000,-0.014210,0.012926,31.809258,7.812500
991.000000,-0.016346,0.012993,31.775690,7.812500
992.000000,-0.019017,0.013081,31.733704,7.812500
993.000000,-0.014515,0.013105,31.688564,7.812500
994.000000,-0.004826,0.013043,31.639149,7.812500
995.000000,-0.003834,0.012940,31.578976,7.812500
996.000000,-0.004902,0.012826,31.510677,7.812500
997.000000,-0.005131,0.012773,31.442415,7.812500
998.000000,-0.012760,0.012774,31.357988,7.812500
999.000000,-0.013066,0.012810,31.274132,7.812500
1000.000000,-0.010128,0.012825,31.194008,7.812500
1001.000000,-0.010815,0.012849,31.111443,7.812500
1002.000000,-0.010662,0.012872,31.031958,7.812500
1003.000000,-0.009976,0.012896,30.946241,7.812500
1004.000000,-0.009976,0.012876,30.849070,7.812500
1005.000000,-0.009442,0.012843,30.757345,7.812500
1006.000000,-0.014401,0.012854,30.663219,7.812500
1007.000000,-0.013867,0.012879,30.567598,7.812500
1008.000000,-0.003109,0.012861,30.473019,7.812500
1009.000000,0.004292,0.012867,30.379545,7.812500
1010.000000,0.006657,0.012878,30.288307,7.812500
1011.000000,-0.003719,0.012879,30.200287,7.812500
1012.000000,-0.004635,0.012874,30.111925,7.812500
1013.000000,-0.004025,0.012867,30.026297,7.812500
1014.000000,-0.004788,0.012866,29.939007,7.812500
1015.000000,-0.007305,0.012885,29.853811,7.812500
1016.000000,-0.000362,0.012882,29.772057,7.812500
1017.000000,0.001926,0.012880,29.692978,7.812500
1018.000000,0.000782,0.012880,29.617050,7.812500
1019.000000,0.004597,0.012888,29.543398,7.812500
1020.000000,0.005131,0.012880,29.468855,7.812500
1021.000000,0.002461,0.012863,29.398602,7.812500
1022.000000,0.002461,0.012821,29.331360,7.812500
1023.000000,0.000629,0.012802,29.263031,7.812500
1024.000000,0.000629,0.012772,29.201567,7.812500
1025.000000,-0.002041,0.012748,29.138905,7.812500
1026.000000,-0.004788,0.012756,29.081779,7.812500
1027.000000,-0.009289,0.012789,29.029408,7.812500
1028.000000,-0.006161,0.012800,28.977617,7.812500
1029.000000,-0.005322,0.012803,28.926073,7.812500
1030.000000,-0.012799,0.012855,28.882179,7.812500
1031.000000,-0.013333,0.012911,28.838934,7.812500
1032.000000,-0.017834,0.013033,28.838573,7.812500
1033.000000,-0.016003,0.013131,28.838049,7.812500
1034.000000,-0.020199,0.013282,28.836868,7.812500
1035.000000,-0.021725,0.013456,28.834719,7.812500
1036.000000,-0.020428,0.013606,28.840557,7.812500
1037.000000,-0.015011,0.013678,28.839207,7.812500
1038.000000,-0.014248,0.013728,28.843437,7.812500
1039.000000,-0.016461,0.013783,28.848421,7.812500
1040.000000,-0.014553,0.013820,28.854801,7.812500
1041.000000,-0.017529,0.013924,28.862860,7.812500
1042.000000,-0.016537,0.014012,28.876017,7.812500
1043.000000,-0.023632,0.014165,28.885887,7.812500
1044.000000,-0.022946,0.014192,28.901148,7.812500
1045.000000,-0.008297,0.014090,28.924646,7.812500
1046.000000,0.000172,0.014012,28.949240,7.812500
1047.000000,0.001011,0.013940,28.974674,7.812500
1048.000000,-0.000820,0.013887,29.002886,7.812500
1049.000000,-0.006008,0.013845,29.025713,7.812500
1050.000000,-0.008831,0.013808,29.055437,7.812500
1051.000000,-0.007000,0.013745,29.092289,7.812500
1052.000000,-0.003033,0.013608,29.127850,7.812500
1053.000000,0.001621,0.013401,29.181105,7.812500
1054.000000,-0.000820,0.013115,29.229683,7.812500
1055.000000,0.001011,0.012780,29.274389,7.812500
1056.000000,-0.000362,0.012434,29.322840,7.812500
1057.000000,-0.000439,0.012173,29.371727,7.812500
1058.000000,-0.003719,0.011970,29.424110,7.812500
1059.000000,-0.008679,0.011734,29.487675,7.812500
1060.000000,-0.010357,0.011598,29.555025,7.812500
1061.000000,-0.012188,0.011588,29.619967,7.812500
1062.000000,-0.008831,0.011485,29.692411,7.812500
1063.000000,-0.004330,0.011223,29.754087,7.812500
1064.000000,-0.003567,0.010963,29.832058,7.812500
1065.000000,-0.012341,0.010796,29.915359,7.812500
1066.000000,-0.026303,0.010871,30.001217,7.812500
1067.000000,-0.021801,0.010847,30.081495,7.812500
1068.000000,-0.017376,0.010848,30.172012,7.812500
1069.000000,-0.007382,0.010759,30.256279,7.812500
1070.000000,-0.002346,0.010701,30.361769,7.812500
1071.000000,-0.009136,0.010731,30.474606,7.812500
1072.000000,-0.018063,0.010874,30.571453,7.812500
1073.000000,-0.019589,0.011016,30.684715,7.812500
1074.000000,-0.021496,0.011146,30.802652,7.812500
1075.000000,-0.021801,0.011278,30.925472,7.812500
1076.000000,-0.017224,0.011365,31.035477,7.812500
1077.000000,-0.007000,0.011381,31.149355,7.812500
1078.000000,-0.008297,0.011409,31.260384,7.812500
1079.000000,-0.006695,0.011412,31.392218,7.812500
1080.000000,-0.006847,0.011395,31.533627,7.812500
1081.000000,-0.007534,0.011365,31.657652,7.812500
1082.000000,-0.012188,0.011378,31.776073,7.812500
1083.000000,-0.009747,0.011379,31.899010,7.812500
1084.000000,-0.008526,0.011389,32.021595,7.812500
1085.000000,-0.004788,0.011388,32.160744,7.812500
1086.000000,-0.008221,0.011405,32.282864,7.812500
1087.000000,-0.009060,0.011421,32.401428,7.812500
1088.000000,-0.008526,0.011440,32.514915,7.812500
1089.000000,-0.012570,0.011452,32.612053,7.812500
1090.000000,-0.010204,0.011409,32.729031,7.812500
1091.000000,-0.003796,0.011298,32.851692,7.812500
1092.000000,-0.006619,0.011157,32.975437,7.812500
1093.000000,-0.008984,0.011098,33.074059,7.812500
1094.000000,-0.010891,0.011141,33.170761,7.812500
1095.000000,-0.014935,0.011234,33.250443,7.812500
1096.000000,-0.013943,0.011310,33.352203,7.812500
1097.000000,-0.010586,0.011348,33.446198,7.812500
1098.000000,-0.009976,0.011320,33.542297,7.812500
1099.000000,-0.011044,0.011298,33.622181,7.812500
1100.000000,-0.011921,0.011316,33.679874,7.812500
1101.000000,-0.013523,0.011345,33.745491,7.812500
1102.000000,-0.014897,0.011392,33.811932,7.812500
1103.000000,-0.012303,0.011415,33.868343,7.812500
1104.000000,-0.012913,0.011444,33.937599,7.812500
1105.000000,-0.013981,0.011491,34.018452,11.718750
1106.000000,-0.014973,0.011498,34.093102,11.718750
1107.000000,-0.013142,0.011490,34.156239,11.718750
1108.000000,-0.010395,0.011532,34.218788,11.718750
1109.000000,-0.013600,0.011604,34.254234,11.718750
1110.000000,-0.016423,0.011701,34.295692,11.718750
1111.000000,-0.015202,0.011794,34.333355,11.718750
1112.000000,-0.014973,0.011879,34.372162,11.718750
1113.000000,-0.011387,0.011927,34.413448,11.718750
1114.000000,-0.004902,0.011927,34.442814,11.718750
1115.000000,-0.003681,0.011911,34.453342,11.718750
1116.000000,-0.007267,0.011933,34.455555,11.718750
1117.000000,-0.010319,0.011976,34.450428,11.718750
1118.000000,-0.011997,0.012035,34.437462,11.718750
1119.000000,-0.012455,0.012091,34.436970,11.718750
1120.000000,-0.013828,0.012159,34.428371,11.718750
1121.000000,-0.011769,0.012213,34.416882,11.718750
1122.000000,-0.010319,0.012254,34.401661,11.718750
1123.000000,-0.003681,0.012260,34.375343,11.718750
1124.000000,-0.006580,0.012277,34.339668,11.718750
1125.000000,-0.001316,0.012276,34.302200,11.718750
1126.000000,-0.003147,0.012271,34.248280,11.718750
1127.000000,-0.004673,0.012245,34.194485,11.718750
1128.000000,-0.006275,0.012245,34.144760,11.718750
1129.000000,-0.010929,0.012282,34.092335,11.718750
1130.000000,-0.015965,0.012319,34.042450,11.718750
1131.000000,-0.015049,0.012339,33.987564,11.718750
1132.000000,-0.012608,0.012274,33.919327,11.718750
1133.000000,-0.006886,0.012189,33.857384,11.718750
1134.000000,-0.004520,0.012029,33.792496,11.718750
1135.000000,-0.005512,0.011844,33.724979,11.718750
1136.000000,-0.008640,0.011699,33.658134,11.718750
1137.000000,-0.008488,0.011633,33.591560,11.718750
1138.000000,-0.004673,0.011555,33.526379,11.718750
1139.000000,-0.007420,0.011461,33.464092,11.718750
1140.000000,-0.011234,0.011424,33.401577,11.718750
1141.000000,-0.008412,0.011320,33.341339,11.718750
1142.000000,-0.012913,0.011272,33.279652,11.718750
1143.000000,-0.012531,0.011093,33.219250,11.718750
1144.000000,-0.011921,0.010918,33.161797,11.718750
1145.000000,-0.005131,0.010899,33.106647,11.718750
1146.000000,0.004025,0.010906,33.054497,11.718750
1147.000000,-0.001774,0.010907,33.004181,11.718750
1148.000000,-0.005970,0.010923,32.952621,11.718750
1149.000000,-0.007725,0.010934,32.905243,11.718750
1150.000000,-0.011234,0.010956,32.860638,11.718750
1151.000000,-0.009327,0.010973,32.814919,11.718750
1152.000000,-0.003605,0.010975,32.775944,11.718750
1153.000000,-0.004902,0.010985,32.735683,11.718750
1154.000000,-0.008259,0.011015,32.700855,11.718750
1155.000000,-0.009709,0.011058,32.670666,11.718750
1156.000000,-0.008946,0.011094,32.640976,11.718750
1157.000000,-0.004368,0.011102,32.611435,7.812500
1158.000000,-0.006428,0.011115,32.589649,7.812500
1159.000000,-0.006657,0.011101,32.568314,7.812500
1160.000000,-0.009785,0.011095,32.590473,11.718750
1161.000000,-0.008793,0.011063,32.612595,11.718750
1162.000000,-0.007496,0.011053,32.634186,11.718750
1163.000000,-0.012455,0.011115,32.655022,11.718750
1164.000000,-0.015507,0.011217,32.684052,11.718750
1165.000000,-0.013294,0.011228,32.705391,11.718750
1166.000000,-0.011845,0.010979,32.732521,11.718750
1167.000000,-0.014820,0.010862,32.760433,11.718750
1168.000000,-0.012074,0.010790,32.789501,11.718750
1169.000000,-0.011769,0.010829,32.820034,11.718750
1170.000000,-0.014591,0.010924,32.855568,11.718750
1171.000000,-0.014134,0.010978,32.888046,11.718750
1172.000000,-0.013676,0.010914,32.926456,11.718750
1173.000000,-0.009480,0.010779,32.973412,11.718750
1174.000000,-0.011540,0.010625,33.021255,11.718750
1175.000000,-0.014134,0.010494,33.069447,11.718750
1176.000000,-0.014134,0.010448,33.119869,11.718750
1177.000000,-0.016957,0.010562,33.163990,11.718750
1178.000000,-0.017109,0.010667,33.214508,11.718750
1179.000000,-0.011311,0.010706,33.272465,11.718750
1180.000000,-0.011769,0.010749,33.328064,11.718750
1181.000000,-0.011234,0.010781,33.402138,11.718750
1182.000000,-0.011845,0.010777,33.470978,11.718750
1183.000000,-0.009556,0.010775,33.534904,11.718750
1184.000000,-0.006275,0.010760,33.600605,11.718750
1185.000000,-0.003910,0.010756,33.665016,11.718750
1186.000000,-0.008106,0.010756,33.730812,11.718750
1187.000000,-0.011234,0.010776,33.809635,11.718750
1188.000000,-0.008335,0.010775,33.890629,11.718750
1189.000000,-0.006733,0.010722,33.968418,11.718750
1190.000000,-0.008869,0.010710,34.055065,11.718750
1191.000000,-0.005360,0.010717,34.131596,11.718750
1192.000000,-0.003910,0.010704,34.226315,11.718750
1193.000000,-0.007267,0.010691,34.327343,11.718750
1194.000000,-0.007267,0.010660,34.428875,11.718750
1195.000000,-0.009098,0.010594,34.522503,11.718750
1196.000000,-0.008183,0.010533,34.625015,11.718750
1197.000000,-0.005818,0.010496,34.720177,11.718750
1198.000000,-0.005589,0.010464,34.836922,11.718750
1199.000000,-0.009709,0.010450,34.961502,11.718750
1200.000000,-0.012608,0.010458,35.068882,11.718750
1201.000000,-0.015888,0.010492,35.191605,11.718750
1202.000000,-0.016270,0.010512,35.319019,11.718750
1203.000000,-0.018177,0.010597,35.450535,11.718750
1204.000000,-0.017796,0.010667,35.567272,11.718750
1205.000000,-0.014973,0.010681,35.685303,11.718750
1206.000000,-0.012303,0.010647,35.799194,11.718750
1207.000000,-0.007725,0.010593,35.934082,11.718750
1208.000000,-0.007877,0.010572,36.079689,11.718750
1209.000000,-0.015660,0.010600,36.203472,11.718750
1210.000000,-0.017262,0.010614,36.318321,11.718750
1211.000000,-0.019017,0.010675,36.435566,11.718750
1212.000000,-0.019932,0.010756,36.550335,11.718750
1213.000000,-0.018711,0.010858,36.681736,11.718750
1214.000000,-0.016041,0.010965,36.794693,11.718750
1215.000000,-0.013905,0.011046,36.903877,11.718750
1216.000000,-0.004368,0.011031,37.006916,11.718750
1217.000000,0.002346,0.010985,37.089813,11.718750
1218.000000,0.001812,0.010921,37.192112,11.718750
1219.000000,-0.002232,0.010852,37.298393,11.718750
1220.000000,-0.007496,0.010789,37.403740,11.718750
1221.000000,-0.005818,0.010741,37.480438,11.718750
1222.000000,-0.000172,0.010691,37.553391,11.718750
1223.000000,-0.007954,0.010714,37.607010,11.718750
1224.000000,-0.010319,0.010744,37.682030,11.718750
1225.000000,-0.006352,0.010762,37.746731,11.718750
1226.000000,0.001583,0.010758,37.811214,11.718750
1227.000000,0.006237,0.010766,37.855793,11.718750
1228.000000,0.006924,0.010770,37.875645,11.718750
1229.000000,0.002651,0.010718,37.901886,11.718750
1230.000000,-0.004902,0.010610,37.925415,11.718750
1231.000000,-0.004597,0.010513,37.938808,11.718750
1232.000000,-0.002384,0.010439,37.967155,11.718750
1233.000000,-0.003147,0.010421,38.005756,11.718750
1234.000000,-0.005818,0.010428,38.035408,11.718750
1235.000000,-0.010548,0.010467,38.052959,11.718750
1236.000000,-0.017491,0.010576,38.068794,11.718750
1237.000000,-0.017109,0.010680,38.055527,11.718750
1238.000000,-0.015278,0.010779,38.049332,11.718750
1239.000000,-0.013294,0.010835,38.038483,11.718750
1240.000000,-0.009709,0.010820,38.029118,11.718750
1241.000000,-0.007115,0.010811,38.025887,11.718750
1242.000000,-0.007954,0.010763,38.012432,11.718750
1243.000000,-0.013600,0.010776,37.979694,11.718750
1244.000000,-0.018406,0.010867,37.940186,11.718750
1245.000000,-0.015583,0.010966,37.891808,11.718750
1246.000000,-0.015202,0.011064,37.834602,11.718750
1247.000000,-0.012760,0.011136,37.790352,11.718750
1248.000000,-0.010700,0.011171,37.737434,11.718750
1249.000000,-0.013752,0.011229,37.681602,11.718750
1250.000000,-0.013142,0.011249,37.622570,11.718750
1251.000000,-0.000935,0.011211,37.554142,11.718750
1252.000000,0.000515,0.011205,37.478558,11.718750
1253.000000,-0.001850,0.011196,37.398384,11.718750
1254.000000,-0.002842,0.011169,37.300610,11.718750
1255.000000,-0.001926,0.011129,37.202209,11.718750
1256.000000,-0.001621,0.011094,37.107300,11.718750
1257.000000,0.001507,0.011086,37.012997,11.718750
1258.000000,0.005703,0.011082,36.925133,11.718750
1259.000000,-0.000401,0.011062,36.829330,11.718750
1260.000000,-0.006809,0.011040,36.719757,11.718750
1261.000000,-0.010243,0.011053,36.618439,11.718750
1262.000000,-0.006275,0.011045,36.512924,11.718750
1263.000000,-0.003376,0.010980,36.405224,11.718750
1264.000000,-0.001469,0.010871,36.300129,11.718750
1265.000000,-0.001164,0.010790,36.194954,11.718750
1266.000000,-0.008030,0.010754,36.090557,11.718750
1267.000000,-0.017872,0.010801,35.992805,11.718750
1268.000000,-0.021611,0.010948,35.898556,11.718750
1269.000000,-0.020314,0.011073,35.809414,11.718750
1270.000000,-0.016423,0.011099,35.716270,11.718750
1271.000000,-0.009022,0.011045,35.624557,11.718750
1272.000000,-0.007267,0.010984,35.540756,11.718750
1273.000000,-0.008183,0.010974,35.463413,11.718750
1274.000000,-0.020008,0.011095,35.393723,11.718750
1275.000000,-0.025196,0.011289,35.326321,11.718750
1276.000000,-0.023060,0.011435,35.259136,11.718750
1277.000000,-0.015126,0.011410,35.196537,11.718750
1278.000000,-0.015660,0.011389,35.136154,11.718750
1279.000000,-0.009785,0.011375,35.073055,11.718750
1280.000000,-0.002537,0.011316,35.019230,11.718750
1281.000000,0.000744,0.011261,34.965706,11.718750
1282.000000,-0.003529,0.011204,34.920555,11.718750
1283.000000,-0.004978,0.011174,34.881508,11.718750
1284.000000,-0.008946,0.011192,34.842251,11.718750
1285.000000,-0.006580,0.011205,34.802456,11.718750
1286.000000,-0.001545,0.011176,34.771114,11.718750
1287.000000,0.000896,0.011120,34.740852,11.718750
1288.000000,0.001278,0.011090,34.756561,11.718750
1289.000000,-0.004749,0.011079,34.773342,11.718750
1290.000000,-0.002384,0.011046,34.790508,11.718750
1291.000000,-0.004444,0.011042,34.807899,11.718750
1292.000000,-0.005360,0.011048,34.834549,11.718750
1293.000000,-0.009098,0.011062,34.854229,11.718750
1294.000000,-0.009556,0.011079,34.881111,11.718750
1295.000000,-0.013676,0.011126,34.909531,11.718750
1296.000000,-0.016270,0.011215,34.939621,11.718750
1297.000000,-0.019017,0.011360,34.972069,11.718750
1298.000000,-0.011616,0.011406,35.009892,11.718750
1299.000000,-0.013066,0.011439,35.045036,11.718750
1300.000000,-0.018444,0.011518,35.087013,11.718750
1301.000000,-0.018673,0.011560,35.139702,11.718750
1302.000000,-0.016690,0.011566,35.194290,11.718750
1303.000000,-0.016766,0.011544,35.250359,11.718750
1304.000000,-0.023098,0.011638,35.310226,11.718750
1305.000000,-0.019360,0.011702,35.364388,11.718750
1306.000000,-0.012264,0.011702,35.425030,11.718750
1307.000000,-0.011883,0.011737,35.493202,11.718750
1308.000000,-0.008602,0.011742,35.560650,11.718750
1309.000000,-0.008373,0.011667,35.650246,11.718750
1310.000000,-0.005932,0.011554,35.735767,11.718750
1311.000000,-0.004253,0.011404,35.816463,11.718750
1312.000000,-0.005093,0.011240,35.899197,11.718750
1313.000000,-0.002804,0.011087,35.980247,11.718750
1314.000000,-0.003948,0.010977,36.063095,11.718750
1315.000000,0.005055,0.010901,36.159897,11.718750
1316.000000,0.013523,0.010976,36.259457,11.718750
1317.000000,0.009251,0.011012,36.356033,11.718750
1318.000000,0.003910,0.011017,36.462334,11.718750
1319.000000,-0.002804,0.011019,36.558754,11.718750
1320.000000,-0.007763,0.011021,36.674236,11.718750
1321.000000,-0.005322,0.011018,36.796833,11.718750
1322.000000,-0.004101,0.011026,36.920635,11.718750
1323.000000,-0.006542,0.011016,37.038368,11.718750
1324.000000,-0.005474,0.010982,37.166046,11.718750
1325.000000,-0.004177,0.010971,37.285751,11.718750
1326.000000,-0.003948,0.010977,37.427235,11.718750
1327.000000,-0.005779,0.010975,37.576962,11.718750
1328.000000,-0.007534,0.010979,37.709438,11.718750
1329.000000,-0.016690,0.011102,37.857918,11.718750
1330.000000,-0.022793,0.011323,38.011131,11.718750
1331.000000,-0.020352,0.011495,38.168388,11.718750
1332.000000,-0.014706,0.011586,38.310791,11.718750
1333.000000,-0.011120,0.011635,38.455235,11.718750
1334.000000,-0.013409,0.011698,38.595966,11.718750
1335.000000,-0.014172,0.011736,38.757652,11.718750
1336.000000,-0.014248,0.011692,38.929638,11.718750
1337.000000,-0.014172,0.011653,39.080112,11.718750
1338.000000,-0.011959,0.011614,39.221844,11.718750
1339.000000,-0.013943,0.011621,39.365692,11.718750
1340.000000,-0.010815,0.011631,39.506863,11.718750
1341.000000,-0.004253,0.011617,39.664951,11.718750
1342.000000,-0.000057,0.011590,39.804134,11.718750
1343.000000,-0.001583,0.011511,39.939091,11.718750
1344.000000,-0.010433,0.011411,40.067276,11.718750
1345.000000,-0.013714,0.011387,40.174667,11.718750
1346.000000,-0.015621,0.011392,40.301422,11.718750
1347.000000,-0.010967,0.011374,40.431393,11.718750
1348.000000,-0.007763,0.011350,40.560024,11.718750
1349.000000,-0.004101,0.011274,40.659706,11.718750
1350.000000,-0.007839,0.011224,40.755955,11.718750
1351.000000,-0.008221,0.011254,40.832241,11.718750
1352.000000,-0.015087,0.011354,40.928501,11.718750
1353.000000,-0.019818,0.011525,41.013878,11.718750
1354.000000,-0.017300,0.011650,41.097786,11.718750
1355.000000,-0.016918,0.011771,41.160660,11.718750
1356.000000,-0.018292,0.011911,41.199055,11.718750
1357.000000,-0.012646,0.011977,41.244232,11.718750
1358.000000,-0.009365,0.012000,41.285675,11.718750
1359.000000,-0.019207,0.012153,41.316959,11.718750
1360.000000,-0.022717,0.012344,41.361042,11.718750
1361.000000,-0.016155,0.012407,41.412861,11.718750
1362.000000,-0.012951,0.012459,41.455051,11.718750
1363.000000,-0.016613,0.012565,41.484497,11.718750
1364.000000,-0.020047,0.012723,41.511120,11.718750
1365.000000,-0.015774,0.012820,41.509933,11.718750
1366.000000,-0.009899,0.012833,41.516315,11.718750
1367.000000,-0.005932,0.012722,41.513599,11.718750
1368.000000,-0.011273,0.012587,41.510349,11.718750
1369.000000,-0.011273,0.012473,41.514771,11.718750
1370.000000,-0.008679,0.012395,41.509674,11.718750
1371.000000,-0.008450,0.012391,41.482647,11.718750
1372.000000,-0.008450,0.012399,41.445644,11.718750
1373.000000,-0.007687,0.012395,41.401829,11.718750
1374.000000,-0.006466,0.012250,41.351875,11.718750
1375.000000,-0.005856,0.012002,41.315010,11.718750
1376.000000,-0.011883,0.011839,41.266651,11.718750
1377.000000,-0.014630,0.011832,41.213318,11.718750
1378.000000,-0.013638,0.011807,41.154606,11.718750
1379.000000,-0.011044,0.011818,41.085438,11.718750
1380.000000,-0.006542,0.011834,41.009830,11.718750
1381.000000,-0.005932,0.011848,40.930523,11.718750
1382.000000,-0.010433,0.011889,40.834114,11.718750
1383.000000,-0.008145,0.011906,40.736759,11.718750
1384.000000,-0.005322,0.011885,40.640560,11.718750
1385.000000,-0.010815,0.011916,40.542656,11.718750
1386.000000,-0.010586,0.011962,40.450413,11.718750
1387.000000,-0.014630,0.012050,40.348152,11.718750
1388.000000,-0.015927,0.012154,40.234406,11.718750
1389.000000,-0.013333,0.012218,40.126644,11.718750
1390.000000,-0.011730,0.012272,40.013161,11.718750
1391.000000,-0.007153,0.012285,39.898579,11.718750
1392.000000,-0.004406,0.012281,39.788025,11.718750
1393.000000,0.005283,0.012259,39.676708,11.718750
1394.000000,0.012379,0.012284,39.567871,11.718750
1395.000000,0.002613,0.012210,39.463428,11.718750
1396.000000,-0.005856,0.012116,39.360802,11.718750
1397.000000,-0.006771,0.011985,39.261829,11.718750
1398.000000,-0.008602,0.011959,39.158314,11.718750
1399.000000,-0.011196,0.011940,39.058247,11.718750
1400.000000,-0.002956,0.011801,38.968246,11.718750
1401.000000,0.000401,0.011652,38.887985,11.718750
1402.000000,0.008030,0.011560,38.815868,11.718750
1403.000000,0.013905,0.011522,38.743217,11.718750
1404.000000,0.017948,0.011430,38.669121,11.718750
1405.000000,0.007725,0.011291,38.598446,11.718750
1406.000000,-0.002270,0.011226,38.530643,11.718750
1407.000000,-0.014858,0.011262,38.459259,11.718750
1408.000000,-0.013256,0.011307,38.399021,11.718750
1409.000000,-0.010891,0.011328,38.338112,11.718750
1410.000000,-0.011349,0.011369,38.285225,11.718750
1411.000000,-0.009823,0.011404,38.240627,11.718750
1412.000000,-0.000057,0.011393,38.196423,11.718750
1413.000000,0.009709,0.011430,38.149723,11.718750
1414.000000,0.002613,0.011427,38.110573,11.718750
1415.000000,-0.009213,0.011452,38.071358,11.718750
1416.000000,-0.022107,0.011585,38.078144,11.718750
1417.000000,-0.024090,0.011797,38.086411,11.718750
1418.000000,-0.020275,0.011963,38.095467,11.718750
1419.000000,-0.016766,0.012077,38.105152,11.718750
1420.000000,-0.016232,0.012161,38.125008,11.718750
1421.000000,-0.017376,0.012273,38.137985,11.718750
1422.000000,-0.013943,0.012345,38.157761,11.718750
1423.000000,-0.011883,0.012385,38.178909,11.718750
1424.000000,-0.010662,0.012419,38.201717,11.718750
1425.000000,-0.015011,0.012502,38.226841,11.718750
1426.000000,-0.016232,0.012601,38.257549,11.718750
1427.000000,-0.014172,0.012667,38.286266,11.718750
1428.000000,-0.012570,0.012707,38.322304,11.718750
1429.000000,-0.010586,0.012641,38.369141,11.718750
1430.000000,-0.009823,0.012473,38.418243,11.718750
1431.000000,-0.010662,0.012352,38.469337,11.718750
1432.000000,-0.009823,0.012303,38.524387,11.718750
1433.000000,-0.005169,0.012264,38.573826,11.718750
1434.000000,-0.005093,0.012201,38.630119,11.718750
1435.000000,-0.003491,0.012123,38.694313,11.718750
1436.000000,-0.008602,0.012070,38.758076,11.718750
1437.000000,-0.004177,0.011994,38.844299,11.718750
1438.000000,0.003910,0.011940,38.926762,11.718750
1439.000000,0.004063,0.011866,39.004642,11.718750
1440.000000,0.001164,0.011817,39.084774,11.718750
1441.000000,-0.003338,0.011814,39.162994,11.718750
1442.000000,-0.004788,0.011824,39.242893,11.718750
1443.000000,-0.001888,0.011824,39.337135,11.718750
1444.000000,-0.005779,0.011792,39.434898,11.718750
1445.000000,-0.009136,0.011748,39.529385,11.718750
1446.000000,-0.003719,0.011649,39.632057,11.718750
1447.000000,-0.003948,0.011604,39.725021,11.718750
1448.000000,-0.007610,0.011603,39.838348,11.718750
1449.000000,-0.008679,0.011628,39.960758,11.718750
1450.000000,-0.006161,0.011618,40.083981,11.718750
1451.000000,-0.009976,0.011632,40.199646,11.718750
1452.000000,-0.010739,0.011584,40.327480,11.718750
1453.000000,-0.010967,0.011465,40.449413,11.718750
1454.000000,-0.019360,0.011498,40.590797,11.718750
1455.000000,-0.020275,0.011552,40.741966,11.718750
1456.000000,-0.023251,0.011641,40.878338,11.718750
1457.000000,-0.022107,0.011782,41.030140,11.718750
1458.000000,-0.020047,0.011914,41.186069,11.718750
1459.000000,-0.017834,0.011893,41.347149,11.718750
1460.000000,-0.016384,0.011788,41.494656,11.718750
1461.000000,-0.018826,0.011828,41.645641,11.718750
1462.000000,-0.020199,0.011929,41.796688,11.718750
1463.000000,-0.022793,0.012031,41.967453,11.718750
1464.000000,-0.019665,0.012024,42.148647,11.718750
1465.000000,-0.018292,0.012060,42.307495,11.718750
1466.000000,-0.017910,0.012152,42.457302,11.718750
1467.000000,-0.016766,0.012253,42.608208,11.718750
1468.000000,-0.021267,0.012385,42.756477,11.718750
1469.000000,-0.019512,0.012487,42.923496,11.718750
1470.000000,-0.017834,0.012584,43.073586,11.718750
1471.000000,-0.013714,0.012630,43.221901,11.718750
1472.000000,-0.010357,0.012644,43.362537,11.718750
1473.000000,-0.007458,0.012643,43.480427,11.718750
1474.000000,-0.006924,0.012645,43.617043,11.718750
1475.000000,-0.008221,0.012658,43.756248,11.718750
1476.000000,-0.014782,0.012689,43.895309,11.718750
1477.000000,-0.014248,0.012684,44.005997,11.718750
1478.000000,-0.007763,0.012635,44.113735,11.718750
1479.000000,-0.004025,0.012593,44.201488,11.718750
1480.000000,-0.001965,0.012577,44.310478,11.718750
1481.000000,-0.004406,0.012571,44.409603,11.718750
1482.000000,-0.009289,0.012562,44.506817,11.718750
1483.000000,-0.007229,0.012556,44.582668,11.718750
1484.000000,-0.006924,0.012564,44.634560,11.718750
1485.000000,-0.006237,0.012533,44.692978,11.718750
1486.000000,-0.005016,0.012498,44.747265,11.718750
1487.000000,-0.003185,0.012417,44.790123,11.718750
1488.000000,-0.005474,0.012326,44.844830,11.718750
1489.000000,-0.007916,0.012279,44.907646,11.718750
1490.000000,-0.004253,0.012231,44.962109,11.718750
1491.000000,-0.005169,0.012221,45.003479,11.718750
1492.000000,-0.006771,0.012232,45.041138,11.718750
1493.000000,-0.007839,0.012245,45.050613,11.718750
1494.000000,-0.009670,0.012221,45.067116,11.718750
1495.000000,-0.008831,0.012250,45.074318,11.718750
1496.000000,-0.006619,0.012254,45.080353,11.718750
1497.000000,-0.004711,0.012244,45.093266,11.718750
1498.000000,-0.006847,0.012233,45.096706,11.718750
1499.000000,-0.008297,0.012210,45.078381,11.718750
1500.000000,-0.011883,0.012264,45.050030,11.718750
1501.000000,-0.010815,0.012312,45.014294,11.718750
1502.000000,-0.008755,0.012317,44.971756,11.718750
1503.000000,-0.010281,0.012281,44.941460,11.718750
1504.000000,-0.015011,0.012241,44.899220,11.718750
1505.000000,-0.014248,0.012300,44.851421,11.718750
1506.000000,-0.011501,0.012351,44.797607,11.718750
1507.000000,-0.005398,0.012274,44.733067,11.718750
1508.000000,-0.004711,0.012211,44.661564,11.718750
1509.000000,-0.006085,0.012177,44.585686,11.718750
1510.000000,-0.009747,0.012163,44.492302,11.718750
1511.000000,-0.011425,0.012177,44.397129,11.718750
1512.000000,-0.019818,0.012338,44.302097,11.718750
1513.000000,-0.020657,0.012472,44.204784,11.718750
1514.000000,-0.015240,0.012562,44.112427,11.718750
1515.000000,-0.009442,0.012563,44.008972,11.718750
1516.000000,-0.006695,0.012386,43.893204,11.718750
1517.000000,-0.003033,0.012153,43.782608,11.718750
1518.000000,-0.004025,0.011989,43.665180,11.718750
1519.000000,-0.007000,0.011892,43.545361,11.718750
1520.000000,-0.009136,0.011816,43.426903,11.718750
1521.000000,-0.006695,0.011707,43.305237,11.718750
1522.000000,-0.011807,0.011683,43.184563,11.718750
1523.000000,-0.013714,0.011703,43.070370,11.718750
1524.000000,-0.011425,0.011711,42.960007,11.718750
1525.000000,-0.004177,0.011621,42.854740,11.718750
1526.000000,0.001469,0.011508,42.742821,11.718750
1527.000000,0.001545,0.011422,42.631924,11.718750
1528.000000,0.000553,0.011353,42.529057,11.718750
1529.000000,0.002003,0.011305,42.435802,11.718750
1530.000000,-0.007382,0.011286,42.350540,11.718750
1531.000000,-0.007992,0.011264,42.266762,11.718750
1532.000000,-0.004330,0.011230,42.182819,11.718750
1533.000000,-0.006695,0.011238,42.103176,11.718750
1534.000000,-0.010891,0.011279,42.025749,11.718750
1535.000000,-0.011654,0.011334,41.941975,11.718750
1536.000000,-0.012264,0.011367,41.867874,11.718750
1537.000000,0.007954,0.011387,41.792870,11.718750
1538.000000,0.007801,0.011407,41.725471,11.718750
1539.000000,-0.003567,0.011406,41.666073,11.718750
1540.000000,-0.014477,0.011497,41.606091,11.718750
1541.000000,-0.023022,0.011720,41.541542,11.718750
1542.000000,-0.022564,0.011926,41.483467,11.718750
1543.000000,-0.018139,0.012061,41.424202,11.718750
1544.000000,-0.017300,0.012171,41.409275,11.718750
1545.000000,-0.019818,0.012298,41.396698,11.718750
1546.000000,-0.020581,0.012463,41.384438,11.718750
1547.000000,-0.015316,0.012551,41.371502,11.718750
1548.000000,-0.013485,0.012600,41.367718,11.718750
1549.000000,-0.012188,0.012629,41.355839,11.718750
1550.000000,-0.011273,0.012664,41.349358,11.718750
1551.000000,-0.013333,0.012695,41.343456,11.718750
1552.000000,-0.016308,0.012754,41.338375,11.718750
1553.000000,-0.020581,0.012873,41.335361,11.718750
1554.000000,-0.022030,0.012915,41.336563,11.718750
1555.000000,-0.014935,0.012842,41.336647,11.718750
1556.000000,-0.012875,0.012696,41.344059,11.718750
1557.000000,-0.007382,0.012523,41.362801,11.718750
1558.000000,0.000553,0.012362,41.383682,11.718750
1559.000000,-0.000591,0.012233,41.406586,11.718750
1560.000000,-0.000439,0.012123,41.432919,11.718750
1561.000000,0.001469,0.011977,41.453106,11.718750
1562.000000,0.004597,0.011814,41.477947,11.718750
1563.000000,0.000706,0.011592,41.511997,11.718750
1564.000000,0.004292,0.011432,41.546787,11.718750
1565.000000,0.004292,0.011293,41.604046,11.718750
1566.000000,0.001621,0.011151,41.657696,11.718750
1567.000000,0.001850,0.011026,41.705742,11.718750
1568.000000,0.003300,0.010824,41.755260,11.718750
1569.000000,0.003223,0.010652,41.801445,11.718750
1570.000000,-0.000973,0.010502,41.848198,11.718750
1571.000000,0.000401,0.010412,41.908360,11.718750
1572.000000,0.000248,0.010360,41.971279,11.718750
1573.000000,-0.000057,0.010333,42.030457,11.718750
1574.000000,-0.000286,0.010310,42.097973,11.718750
1575.000000,-0.003872,0.010285,42.156170,11.718750
1576.000000,-0.010815,0.010235,42.233444,11.718750
1577.000000,-0.009136,0.010177,42.319916,11.718750
1578.000000,-0.009823,0.010194,42.407978,11.718750
1579.000000,-0.015621,0.010306,42.491081,11.718750
1580.000000,-0.012341,0.010377,42.588638,11.718750
1581.000000,-0.009747,0.010414,42.679817,11.718750
1582.000000,-0.014172,0.010469,42.788849,11.718750
1583.000000,-0.018292,0.010603,42.906952,11.718750
1584.000000,-0.014706,0.010682,43.011875,11.718750
1585.000000,-0.016308,0.010787,43.132442,11.718750
1586.000000,-0.015621,0.010888,43.258144,11.718750
1587.000000,-0.017147,0.011018,43.390430,11.718750
1588.000000,-0.013180,0.011083,43.509819,11.718750
1589.000000,-0.011959,0.011119,43.632992,11.718750
1590.000000,-0.011120,0.011167,43.758331,11.718750
1591.000000,-0.011883,0.011218,43.903957,11.718750
1592.000000,-0.011883,0.011260,44.059067,11.718750
1593.000000,-0.012646,0.011304,44.191868,11.718750
1594.000000,-0.010967,0.011316,44.315144,11.718750
1595.000000,-0.011807,0.011343,44.441422,11.718750
1596.000000,-0.015469,0.011429,44.566677,11.718750
1597.000000,-0.012493,0.011487,44.711636,11.718750
1598.000000,-0.005169,0.011478,44.840538,15.625000
1599.000000,-0.006924,0.011469,44.968842,15.625000
1600.000000,-0.006847,0.011428,45.090904,15.625000
1601.000000,-0.007992,0.011405,45.192696,15.625000
1602.000000,-0.007916,0.011399,45.313728,15.625000
1603.000000,-0.008907,0.011387,45.438007,15.625000
1604.000000,-0.009594,0.011328,45.565861,15.625000
1605.000000,-0.009823,0.011281,45.669079,15.625000
1606.000000,-0.010891,0.011275,45.769512,15.625000
1607.000000,-0.011501,0.011321,45.852055,15.625000
1608.000000,-0.011807,0.011372,45.953091,15.625000
1609.000000,-0.011807,0.011417,46.045074,15.625000
1610.000000,-0.011730,0.011436,46.135571,15.625000
1611.000000,-0.007992,0.011407,46.208725,15.625000
1612.000000,-0.007992,0.011262,46.261436,15.625000
1613.000000,-0.011730,0.011133,46.322739,15.625000
1614.000000,-0.013333,0.011108,46.380047,15.625000
1615.000000,-0.015164,0.011171,46.427349,15.625000
1616.000000,-0.012493,0.011221,46.484756,15.625000
1617.000000,-0.011349,0.011274,46.549240,15.625000
1618.000000,-0.010662,0.011317,46.607300,15.625000
1619.000000,-0.012875,0.011369,46.652370,15.625000
1620.000000,-0.008297,0.011362,46.694023,15.625000
1621.000000,-0.008907,0.011378,46.712639,15.625000
1622.000000,-0.009823,0.011359,46.740257,15.625000
1623.000000,-0.009518,0.011316,46.756657,15.625000
1624.000000,-0.010128,0.011303,46.770290,15.625000
1625.000000,-0.010128,0.011341,46.792858,15.625000
1626.000000,-0.015469,0.011445,46.807579,15.625000
1627.000000,-0.010128,0.011489,46.801121,15.625000
1628.000000,-0.011196,0.011543,46.782482,15.625000
1629.000000,-0.007839,0.011568,46.758621,15.625000
1630.000000,-0.007839,0.011571,46.730709,15.625000
1631.000000,-0.001965,0.011545,46.715843,15.625000
1632.000000,0.000935,0.011537,46.687836,15.625000
1633.000000,-0.003185,0.011522,46.654385,15.625000
1634.000000,-0.010967,0.011523,46.617184,15.625000
1635.000000,-0.019818,0.011634,46.567863,15.625000
1636.000000,-0.023480,0.011805,46.511734,15.625000
1637.000000,-0.023709,0.012014,46.450439,15.625000
1638.000000,-0.019970,0.012154,46.372032,15.625000
1639.000000,-0.005474,0.012161,46.290474,15.625000
1640.000000,0.008106,0.012102,46.207001,15.625000
1641.000000,0.001545,0.011882,46.121185,15.625000
1642.000000,-0.003414,0.011671,46.041622,15.625000
1643.000000,-0.012341,0.011595,45.952877,15.625000
1644.000000,-0.014935,0.011562,45.852234,15.625000
1645.000000,-0.016918,0.011516,45.755116,15.625000
1646.000000,-0.020428,0.011513,45.649376,15.625000
1647.000000,-0.018673,0.011562,45.540009,15.625000
1648.000000,-0.009442,0.011522,45.431004,15.625000
1649.000000,-0.010815,0.011508,45.318298,15.625000
1650.000000,-0.005322,0.011465,45.206276,15.625000
1651.000000,0.001926,0.011389,45.100323,15.625000
1652.000000,0.002155,0.011274,44.997589,15.625000
1653.000000,-0.001354,0.011085,44.899368,15.625000
1654.000000,-0.009213,0.010903,44.793922,15.625000
1655.000000,-0.007687,0.010828,44.688450,15.625000
1656.000000,-0.005169,0.010763,44.590107,15.625000
1657.000000,-0.008221,0.010770,44.499599,15.625000
1658.000000,-0.008831,0.010806,44.415382,15.625000
1659.000000,-0.008984,0.010843,44.333759,15.625000
1660.000000,-0.008145,0.010873,44.252579,15.625000
1661.000000,-0.003338,0.010877,44.174744,15.625000
1662.000000,0.000324,0.010868,44.097771,15.625000
1663.000000,-0.000973,0.010868,44.014595,15.625000
1664.000000,-0.004711,0.010869,43.939598,15.625000
1665.000000,-0.008373,0.010893,43.862133,15.625000
1666.000000,-0.010204,0.010940,43.789822,15.625000
1667.000000,-0.007610,0.010965,43.722786,15.625000
1668.000000,-0.010967,0.011014,43.652702,15.625000
1669.000000,-0.010586,0.011060,43.581295,15.625000
1670.000000,-0.009670,0.011102,43.520020,15.625000
1671.000000,-0.009518,0.011143,43.460678,15.625000
1672.000000,-0.010052,0.011188,43.442726,15.625000
1673.000000,-0.010052,0.011233,43.424995,15.625000
1674.000000,-0.010815,0.011285,43.406876,15.625000
1675.000000,-0.013638,0.011361,43.388096,15.625000
1676.000000,-0.012570,0.011379,43.374134,15.625000
1677.000000,-0.013714,0.011424,43.348602,15.625000
1678.000000,-0.014935,0.011480,43.330353,15.625000
1679.000000,-0.014935,0.011471,43.316719,15.625000
1680.000000,-0.011578,0.011463,43.308189,15.625000
1681.000000,-0.009670,0.011462,43.302013,15.625000
1682.000000,-0.009365,0.011413,43.298157,15.625000
1683.000000,-0.010662,0.011315,43.291080,15.625000
1684.000000,-0.012188,0.011285,43.291260,15.625000
1685.000000,-0.015316,0.011271,43.302475,15.625000
1686.000000,-0.016155,0.011279,43.314373,15.625000
1687.000000,-0.014630,0.011243,43.327652,15.625000
1688.000000,-0.009518,0.011206,43.344982,15.625000
1689.000000,-0.006847,0.011163,43.358276,15.625000
1690.000000,-0.007610,0.011134,43.376617,15.625000
1691.000000,-0.008221,0.011101,43.403072,15.625000
1692.000000,-0.012264,0.011105,43.429539,15.625000
1693.000000,-0.013790,0.011119,43.476688,15.625000
1694.000000,-0.012722,0.011137,43.520058,15.625000
1695.000000,-0.007839,0.011102,43.558880,15.625000
1696.000000,-0.007763,0.011021,43.600670,15.625000
1697.000000,-0.008831,0.010986,43.638954,15.625000
1698.000000,-0.008679,0.011008,43.677898,15.625000
1699.000000,-0.012112,0.011053,43.729610,15.625000
1700.000000,-0.013180,0.011110,43.784721,15.625000
1701.000000,-0.011730,0.011143,43.834778,15.625000
1702.000000,-0.007687,0.011141,43.890945,15.625000
1703.000000,-0.009670,0.011148,43.939903,15.625000
1704.000000,-0.010357,0.011155,44.008831,15.625000
1705.000000,-0.010815,0.011164,44.088451,15.625000
1706.000000,-0.012341,0.011179,44.170776,15.625000
1707.000000,-0.014858,0.011218,44.246418,15.625000
1708.000000,-0.010052,0.011201,44.337715,15.625000
1709.000000,-0.008755,0.011173,44.425407,15.625000
1710.000000,-0.012264,0.011179,44.530499,15.625000
1711.000000,-0.007534,0.011176,44.644329,15.625000
1712.000000,-0.005474,0.011161,44.747337,15.625000
1713.000000,-0.006390,0.011117,44.866463,15.625000
1714.000000,-0.006695,0.011057,44.989582,15.625000
1715.000000,-0.004101,0.010960,45.120361,15.625000
1716.000000,-0.004711,0.010899,45.241814,15.625000
1717.000000,-0.007229,0.010864,45.368324,15.625000
1718.000000,-0.006771,0.010833,45.499649,15.625000
1719.000000,-0.001736,0.010757,45.653313,15.625000
1720.000000,-0.002728,0.010729,45.818130,15.625000
1721.000000,-0.000973,0.010692,45.960697,15.625000
1722.000000,0.000172,0.010647,46.093498,15.625000
1723.000000,-0.000057,0.010604,46.229500,15.625000
1724.000000,-0.001507,0.010557,46.364281,15.625000
1725.000000,-0.002880,0.010512,46.518429,15.625000
1726.000000,-0.004253,0.010406,46.657478,15.625000
1727.000000,-0.003414,0.010363,46.796619,15.625000
1728.000000,-0.006695,0.010324,46.928978,15.625000
1729.000000,-0.003567,0.010300,47.041348,15.625000
1730.000000,-0.004101,0.010278,47.172005,15.625000
1731.000000,-0.006237,0.010296,47.305508,15.625000
1732.000000,-0.009136,0.010336,47.441620,15.625000
1733.000000,-0.005779,0.010347,47.553703,15.625000
1734.000000,-0.005856,0.010305,47.663372,15.625000
1735.000000,-0.008450,0.010148,47.756283,15.625000
1736.000000,-0.008450,0.009909,47.869167,15.625000
1737.000000,-0.009442,0.009667,47.973366,15.625000
1738.000000,-0.006390,0.009480,48.076614,15.625000
1739.000000,-0.008679,0.009504,48.163342,15.625000
1740.000000,-0.010052,0.009523,48.228867,15.625000
1741.000000,-0.010128,0.009575,48.301594,15.625000
1742.000000,-0.007458,0.009598,48.372833,15.625000
1743.000000,-0.006466,0.009540,48.436787,15.625000
1744.000000,-0.007000,0.009449,48.511375,15.625000
1745.000000,-0.009060,0.009340,48.592194,15.625000
1746.000000,-0.007763,0.009147,48.663422,15.625000
1747.000000,-0.004482,0.008965,48.723373,15.625000
1748.000000,-0.006619,0.008940,48.780365,15.625000
1749.000000,-0.007153,0.008903,48.814640,15.625000
1750.000000,-0.009899,0.008942,48.856777,15.625000
1751.000000,-0.008984,0.008985,48.887726,15.625000
1752.000000,-0.008145,0.009020,48.914722,15.625000
1753.000000,-0.009823,0.009072,48.949848,15.625000
1754.000000,-0.012722,0.009114,48.977573,15.625000
1755.000000,-0.012036,0.009161,48.982048,15.625000
1756.000000,-0.010204,0.009203,48.973957,15.625000
1757.000000,-0.006008,0.009186,48.959751,15.625000
1758.000000,-0.010586,0.009205,48.941109,15.625000
1759.000000,-0.010891,0.009225,48.934589,15.625000
1760.000000,-0.009670,0.009240,48.914761,15.625000
1761.000000,-0.005932,0.009253,48.890095,15.625000
1762.000000,-0.008297,0.009290,48.861057,15.625000
1763.000000,-0.014248,0.009398,48.818207,15.625000
1764.000000,-0.017453,0.009547,48.765617,15.625000
1765.000000,-0.017376,0.009668,48.705761,15.625000
1766.000000,-0.021878,0.009860,48.630409,15.625000
1767.000000,-0.020428,0.010040,48.550472,15.625000
1768.000000,-0.013714,0.010074,48.465408,15.625000
1769.000000,0.008335,0.010053,48.375839,15.625000
1770.000000,0.007038,0.010031,48.293560,15.625000
1771.000000,-0.000896,0.009986,48.205883,15.625000
1772.000000,-0.015011,0.010048,48.106491,15.625000
1773.000000,-0.022793,0.010254,48.008816,15.625000
1774.000000,-0.025082,0.010501,47.901482,15.625000
1775.000000,-0.016613,0.010544,47.788349,15.625000
1776.000000,-0.011349,0.010530,47.670372,15.625000
1777.000000,-0.008221,0.010472,47.540604,15.625000
1778.000000,-0.011883,0.010433,47.411896,15.625000
1779.000000,-0.010891,0.010383,47.293198,15.625000
1780.000000,-0.011883,0.010387,47.183258,15.625000
1781.000000,-0.007992,0.010372,47.080635,15.625000
1782.000000,-0.008068,0.010361,46.969398,15.625000
1783.000000,-0.008068,0.010338,46.853592,15.625000
1784.000000,-0.014935,0.010374,46.742241,15.625000
1785.000000,-0.020199,0.010457,46.637920,15.625000
1786.000000,-0.019360,0.010511,46.538948,15.625000
1787.000000,-0.018902,0.010579,46.441326,15.625000
1788.000000,-0.014553,0.010637,46.344326,15.625000
1789.000000,-0.012951,0.010693,46.250854,15.625000
1790.000000,-0.014324,0.010762,46.158749,15.625000
1791.000000,-0.012875,0.010807,46.059631,15.625000
1792.000000,-0.011044,0.010794,45.968830,15.625000
1793.000000,-0.013714,0.010793,45.875130,15.625000
1794.000000,-0.015698,0.010832,45.784599,15.625000
1795.000000,-0.016842,0.010934,45.698608,15.625000
1796.000000,-0.014477,0.011002,45.608879,15.625000
1797.000000,-0.013333,0.011048,45.517242,15.625000
1798.000000,-0.014401,0.011107,45.435497,15.625000
1799.000000,-0.015393,0.011148,45.355473,15.625000
1800.000000,-0.014553,0.011165,45.317093,15.625000
1801.000000,-0.014096,0.011192,45.277599,15.625000
1802.000000,-0.013638,0.011249,45.236320,15.625000
1803.000000,-0.011883,0.011270,45.194618,15.625000
1804.000000,-0.014706,0.011318,45.159416,15.625000
1805.000000,-0.013638,0.011349,45.113979,15.625000
1806.000000,-0.012188,0.011347,45.075676,15.625000
1807.000000,-0.013943,0.011335,45.041367,15.625000
1808.000000,-0.013943,0.011376,45.012333,15.625000
1809.000000,-0.008602,0.011375,44.986244,15.625000
1810.000000,-0.008984,0.011345,44.962856,15.625000
1811.000000,-0.010433,0.011368,44.935978,15.625000
1812.000000,-0.005932,0.011370,44.916031,15.625000
1813.000000,-0.007916,0.011379,44.907410,15.625000
1814.000000,-0.007000,0.011381,44.899853,15.625000
1815.000000,-0.003414,0.011379,44.894058,15.625000
1816.000000,-0.010510,0.011418,44.893234,15.625000
1817.000000,-0.008907,0.011430,44.890415,15.625000
1818.000000,-0.005703,0.011424,44.893211,15.625000
1819.000000,-0.004253,0.011430,44.903370,15.625000
1820.000000,-0.006466,0.011445,44.914425,15.625000
1821.000000,-0.002346,0.011447,44.945770,15.625000
1822.000000,-0.001049,0.011448,44.972744,15.625000
1823.000000,-0.001049,0.011448,44.996433,15.625000
1824.000000,0.000172,0.011447,45.022263,15.625000
1825.000000,-0.000973,0.011444,45.044861,15.625000
1826.000000,0.000172,0.011436,45.068527,15.625000
1827.000000,-0.006313,0.011449,45.106865,15.625000
1828.000000,-0.005169,0.011441,45.147587,15.625000
1829.000000,-0.005245,0.011447,45.184994,15.625000
1830.000000,-0.004635,0.011449,45.230473,15.625000
1831.000000,-0.002270,0.011434,45.269451,15.625000
1832.000000,0.000248,0.011398,45.329147,15.625000
1833.000000,0.002995,0.011387,45.399967,15.625000
1834.000000,0.001087,0.011373,45.476280,15.625000
1835.000000,-0.001583,0.011342,45.543888,15.625000
1836.000000,-0.006008,0.011327,45.628426,15.625000
1837.000000,-0.005932,0.011303,45.710281,15.625000
1838.000000,-0.007153,0.011307,45.810722,15.625000
1839.000000,-0.003414,0.011279,45.923347,15.625000
1840.000000,0.000629,0.011235,46.030151,15.625000
1841.000000,0.000172,0.011189,46.154289,15.625000
1842.000000,-0.003567,0.011170,46.282738,15.625000
1843.000000,-0.005550,0.011165,46.420742,15.625000
1844.000000,-0.005932,0.011159,46.547501,15.625000
1845.000000,-0.004635,0.011131,46.679348,15.625000
1846.000000,-0.002804,0.011108,46.817966,15.625000
1847.000000,-0.007763,0.011126,46.982090,15.625000
1848.000000,-0.007534,0.011132,47.157909,15.625000
1849.000000,-0.009442,0.011149,47.312187,15.625000
1850.000000,-0.009823,0.011148,47.456059,15.625000
1851.000000,-0.004177,0.011120,47.603477,15.625000
1852.000000,-0.003414,0.011095,47.749390,15.625000
1853.000000,-0.003948,0.011058,47.915165,15.625000
1854.000000,-0.010739,0.011037,48.066505,15.625000
1855.000000,-0.010586,0.011023,48.217865,15.625000
1856.000000,-0.014324,0.011068,48.362972,15.625000
1857.000000,-0.014858,0.011151,48.488491,15.625000
1858.000000,-0.011120,0.011157,48.632469,15.625000
1859.000000,-0.009365,0.011143,48.780090,15.625000
1860.000000,-0.002346,0.011103,48.930565,15.625000
1861.000000,-0.003719,0.011094,49.056927,15.625000
1862.000000,-0.006085,0.011079,49.181011,15.625000
1863.000000,-0.010662,0.011039,49.288628,15.625000
1864.000000,-0.013561,0.010984,49.416260,15.625000
1865.000000,-0.015316,0.010953,49.535343,15.625000
1866.000000,-0.016461,0.010858,49.653584,15.625000
1867.000000,-0.017529,0.010807,49.755398,15.625000
1868.000000,-0.020123,0.010907,49.835930,15.625000
1869.000000,-0.022488,0.011105,49.923260,15.625000
1870.000000,-0.017147,0.011215,50.008774,15.625000
1871.000000,0.004139,0.011222,50.086960,15.625000
1872.000000,0.004444,0.011130,50.175621,15.625000
1873.000000,-0.008831,0.010930,50.270298,15.625000
1874.000000,-0.017605,0.010783,50.355198,15.625000
1875.000000,-0.025540,0.010956,50.428925,15.625000
1876.000000,-0.025387,0.011189,50.499428,15.625000
1877.000000,-0.028744,0.011523,50.546688,15.625000
1878.000000,-0.022641,0.011683,50.600788,15.625000
1879.000000,-0.017605,0.011765,50.641064,15.625000
1880.000000,-0.011730,0.011763,50.675861,15.625000
1881.000000,-0.007305,0.011759,50.719913,15.625000
1882.000000,-0.006619,0.011750,50.757652,15.625000
1883.000000,-0.004711,0.011731,50.772591,15.625000
1884.000000,-0.006619,0.011655,50.774857,15.625000
1885.000000,-0.012875,0.011550,50.770332,15.625000
1886.000000,-0.018292,0.011533,50.759613,15.625000
1887.000000,-0.020809,0.011566,50.759686,15.625000
1888.000000,-0.017300,0.011603,50.745213,15.625000
1889.000000,-0.013561,0.011610,50.724686,15.625000
1890.000000,-0.009289,0.011559,50.698139,15.625000
1891.000000,-0.007687,0.011513,50.657284,15.625000
1892.000000,-0.004635,0.011469,50.605942,15.625000
1893.000000,-0.004101,0.011394,50.548225,15.625000
1894.000000,-0.006390,0.011304,50.475250,15.625000
1895.000000,-0.008907,0.011213,50.398003,15.625000
1896.000000,-0.013943,0.011206,50.314392,15.625000
1897.000000,-0.012799,0.011200,50.224548,15.625000
1898.000000,-0.011196,0.011163,50.140167,15.625000
1899.000000,-0.011425,0.011116,50.048508,15.625000
1900.000000,-0.009213,0.011058,49.943027,15.625000
1901.000000,-0.006085,0.010985,49.837585,15.625000
1902.000000,-0.007763,0.010928,49.722507,15.625000
1903.000000,-0.010357,0.010912,49.604912,15.625000
1904.000000,-0.012570,0.010885,49.485889,15.625000
1905.000000,-0.010510,0.010851,49.352570,15.625000
1906.000000,-0.010052,0.010829,49.218502,15.625000
1907.000000,-0.010052,0.010785,49.092529,15.625000
1908.000000,-0.009213,0.010735,48.974041,15.625000
1909.000000,-0.007687,0.010728,48.861420,15.625000
1910.000000,-0.009289,0.010730,48.739296,15.625000
1911.000000,-0.008145,0.010710,48.613049,15.625000
1912.000000,-0.008221,0.010725,48.493484,15.625000
1913.000000,-0.007229,0.010721,48.379890,15.625000
1914.000000,-0.006695,0.010719,48.272472,15.625000
1915.000000,-0.009213,0.010753,48.167545,15.625000
1916.000000,-0.009899,0.010747,48.062679,15.625000
1917.000000,-0.010128,0.010758,47.960186,15.625000
1918.000000,-0.010967,0.010798,47.857990,15.625000
1919.000000,-0.012341,0.010860,47.748829,15.625000
1920.000000,-0.006847,0.010863,47.648239,15.625000
1921.000000,-0.006390,0.010879,47.544235,15.625000
1922.000000,-0.007229,0.010903,47.443275,15.625000
1923.000000,-0.006771,0.010923,47.347195,15.625000
1924.000000,-0.010815,0.010976,47.247681,15.625000
1925.000000,-0.013180,0.011055,47.146885,15.625000
1926.000000,-0.012570,0.011126,47.056240,15.625000
1927.000000,-0.013561,0.011191,46.967144,15.625000
1928.000000,-0.015011,0.011279,46.918880,15.625000
1929.000000,-0.009594,0.011308,46.869564,15.625000
1930.000000,-0.008373,0.011329,46.818707,15.625000
1931.000000,-0.009136,0.011364,46.767780,15.625000
1932.000000,-0.008526,0.011395,46.723602,15.625000
1933.000000,-0.006924,0.011413,46.669647,15.625000
1934.000000,-0.009518,0.011452,46.623051,15.625000
1935.000000,-0.008145,0.011479,46.580696,15.625000
1936.000000,-0.013943,0.011548,46.543831,15.625000
1937.000000,-0.013790,0.011615,46.510410,15.625000
1938.000000,-0.007610,0.011618,46.480190,15.625000
1939.000000,-0.012036,0.011675,46.447098,15.625000
1940.000000,-0.011044,0.011727,46.421337,15.625000
1941.000000,-0.004025,0.011734,46.407413,15.625000
1942.000000,-0.003872,0.011735,46.395012,15.625000
1943.000000,-0.002804,0.011725,46.384975,15.625000
1944.000000,-0.005474,0.011723,46.380001,15.625000
1945.000000,-0.007916,0.011741,46.373447,15.625000
1946.000000,-0.005474,0.011750,46.373348,15.625000
1947.000000,-0.005550,0.011737,46.380856,15.625000
1948.000000,-0.007305,0.011736,46.390034,15.625000
1949.000000,-0.005016,0.011709,46.420689,15.625000
1950.000000,-0.006466,0.011685,46.447670,15.625000
1951.000000,-0.005856,0.011693,46.471939,15.625000
1952.000000,-0.007305,0.011710,46.498486,15.625000
1953.000000,-0.004864,0.011714,46.522198,15.625000
1954.000000,0.000172,0.011665,46.547791,15.625000
1955.000000,0.002995,0.011620,46.588478,15.625000
1956.000000,-0.002422,0.011534,46.632305,15.625000
1957.000000,-0.008602,0.011470,46.673756,15.625000
1958.000000,-0.010433,0.011464,46.723576,15.625000
1959.000000,-0.008831,0.011460,46.767384,15.625000
1960.000000,-0.007229,0.011480,46.832031,15.625000
1961.000000,-0.007534,0.011499,46.908386,15.625000
1962.000000,-0.007000,0.011504,46.990959,15.625000
1963.000000,-0.007839,0.011481,47.065685,15.625000
1964.000000,-0.008679,0.011434,47.157192,15.625000
1965.000000,-0.010586,0.011380,47.246407,15.625000
1966.000000,-0.008831,0.011295,47.354218,15.625000
1967.000000,-0.009899,0.011202,47.474457,15.625000
1968.000000,-0.009365,0.011059,47.589451,15.625000
1969.000000,-0.005245,0.010841,47.721802,15.625000
1970.000000,-0.010357,0.010755,47.858711,15.625000
1971.000000,-0.014172,0.010840,48.005238,15.625000
1972.000000,-0.019436,0.011004,48.141060,15.625000
1973.000000,-0.016613,0.011093,48.282154,15.625000
1974.000000,-0.015164,0.011057,48.430038,15.625000
1975.000000,-0.008755,0.010794,48.603115,15.625000
1976.000000,-0.010128,0.010540,48.787762,15.625000
1977.000000,-0.009136,0.010181,48.951439,15.625000
1978.000000,-0.012417,0.010004,49.105083,15.625000
1979.000000,-0.014858,0.009959,49.262238,15.625000
1980.000000,-0.012493,0.009968,49.417671,15.625000
1981.000000,-0.010281,0.009994,49.592457,15.625000
1982.000000,-0.009594,0.010019,49.753078,15.625000
1983.000000,-0.011807,0.010077,49.913677,15.625000
1984.000000,-0.017300,0.010203,50.068005,15.625000
1985.000000,-0.017910,0.010279,50.202988,15.625000
1986.000000,-0.013790,0.010208,50.355286,15.625000
1987.000000,-0.008755,0.010032,50.510464,15.625000
1988.000000,-0.007610,0.009911,50.668530,15.625000
1989.000000,-0.012722,0.009900,50.803314,15.625000
1990.000000,-0.009442,0.009901,50.935902,15.625000
1991.000000,-0.008602,0.009909,51.051594,15.625000
1992.000000,-0.007763,0.009928,51.186008,15.625000
1993.000000,-0.009365,0.009964,51.310863,15.625000
1994.000000,-0.008679,0.009981,51.435333,15.625000
1995.000000,-0.010891,0.010001,51.544899,19.531250
1996.000000,-0.012341,0.009980,51.634087,19.531250
1997.000000,-0.006085,0.009916,51.727650,19.531250
1998.000000,-0.009060,0.009894,51.819607,19.531250
1999.000000,-0.011501,0.009895,51.904552,19.531250
2000.000000,-0.009785,0.009901,51.999260,19.531250
2001.000000,-0.005741,0.009899,52.099091,19.531250
2002.000000,-0.002689,0.009872,52.188320,19.531250
2003.000000,-0.005131,0.009831,52.266003,19.531250
2004.000000,-0.005360,0.009765,52.339867,19.531250
2005.000000,-0.010472,0.009764,52.391205,19.531250
2006.000000,-0.010624,0.009770,52.447693,19.531250
2007.000000,-0.011921,0.009791,52.489498,19.531250
2008.000000,-0.012074,0.009822,52.525509,19.531250
2009.000000,-0.006657,0.009815,52.570549,19.531250
2010.000000,-0.007038,0.009796,52.608692,19.531250
2011.000000,-0.001469,0.009763,52.623146,19.531250
2012.000000,-0.000324,0.009729,52.624508,19.531250
2013.000000,-0.008793,0.009742,52.618145,19.531250
2014.000000,-0.018788,0.009898,52.605087,19.531250
2015.000000,-0.015965,0.009984,52.601776,19.531250
2016.000000,-0.015888,0.010061,52.583378,19.531250
2017.000000,-0.008640,0.010047,52.558575,19.531250
2018.000000,0.003796,0.009994,52.527061,19.531250
2019.000000,-0.005818,0.009935,52.480515,19.531250
2020.000000,-0.012760,0.009993,52.422550,19.531250
2021.000000,-0.012760,0.010054,52.357975,19.531250
2022.000000,-0.011540,0.010094,52.277847,19.531250
2023.000000,-0.010090,0.010122,52.192696,15.625000
2024.000000,-0.010777,0.010121,52.100609,15.625000
2025.000000,-0.008946,0.010075,52.001637,15.625000
2026.000000,-0.006046,0.010015,51.906986,15.625000
2027.000000,-0.006275,0.009942,51.804417,15.625000
2028.000000,-0.008640,0.009866,51.687698,15.625000
2029.000000,-0.012531,0.009899,51.570427,15.625000
2030.000000,-0.015583,0.009986,51.442444,15.625000
2031.000000,-0.015736,0.010068,51.311279,15.625000
2032.000000,-0.008183,0.010065,51.179119,15.625000
2033.000000,-0.004978,0.010053,51.034840,15.625000
2034.000000,-0.004978,0.010020,50.888554,15.625000
2035.000000,-0.008183,0.010021,50.749184,15.625000
2036.000000,-0.009632,0.009970,50.616100,15.625000
2037.000000,-0.006962,0.009899,50.488186,15.625000
2038.000000,-0.002461,0.009872,50.350529,15.625000
2039.000000,-0.004444,0.009809,50.209499,15.625000
2040.000000,-0.016423,0.009884,50.074738,15.625000
2041.000000,-0.021000,0.010096,49.945824,15.625000
2042.000000,-0.021611,0.010318,49.822559,15.625000
2043.000000,-0.015202,0.010426,49.702290,15.625000
2044.000000,0.001965,0.010413,49.582161,15.625000
2045.000000,0.004788,0.010394,49.464619,15.625000
2046.000000,-0.001774,0.010381,49.346867,15.625000
2047.000000,-0.007191,0.010391,49.222534,15.625000
2048.000000,-0.015278,0.010477,49.107586,15.625000
2049.000000,-0.019322,0.010642,48.989288,15.625000
2050.000000,-0.017643,0.010768,48.874393,15.625000
2051.000000,-0.014210,0.010846,48.763927,15.625000
2052.000000,-0.011997,0.010887,48.648701,15.625000
2053.000000,-0.011158,0.010933,48.531998,15.625000
2054.000000,-0.010548,0.010984,48.426373,15.625000
2055.000000,-0.011082,0.011036,48.323776,15.625000
2056.000000,-0.013600,0.011117,48.264168,15.625000
2057.000000,-0.014057,0.011172,48.204037,15.625000
2058.000000,-0.008335,0.011155,48.142166,15.625000
2059.000000,-0.010624,0.011170,48.080013,15.625000
2060.000000,-0.010929,0.011200,48.025131,15.625000
2061.000000,-0.015278,0.011279,47.961006,15.625000
2062.000000,-0.014057,0.011345,47.904560,15.625000
2063.000000,-0.013523,0.011398,47.852863,15.625000
2064.000000,-0.010395,0.011412,47.807720,15.625000
2065.000000,-0.007191,0.011386,47.766743,15.625000
2066.000000,-0.007801,0.011378,47.728916,15.625000
2067.000000,-0.008640,0.011368,47.689373,15.625000
2068.000000,-0.008488,0.011361,47.657524,15.625000
2069.000000,-0.008488,0.011381,47.638920,15.625000
2070.000000,-0.006199,0.011350,47.622532,15.625000
2071.000000,-0.003758,0.011268,47.608955,15.625000
2072.000000,-0.006046,0.011115,47.600857,15.625000
2073.000000,-0.004597,0.011000,47.592152,15.625000
2074.000000,-0.006733,0.010916,47.590725,15.625000
2075.000000,-0.005207,0.010893,47.597660,15.625000
2076.000000,-0.003834,0.010853,47.607491,15.625000
2077.000000,-0.006352,0.010833,47.639496,15.625000
2078.000000,-0.006733,0.010783,47.668507,15.625000
2079.000000,-0.007343,0.010705,47.695713,15.625000
2080.000000,-0.006962,0.010655,47.725643,15.625000
2081.000000,-0.006580,0.010625,47.753567,15.625000
2082.000000,-0.006046,0.010599,47.784698,15.625000
2083.000000,-0.006428,0.010553,47.831844,15.625000
2084.000000,-0.007572,0.010437,47.882706,15.625000
2085.000000,-0.009480,0.010326,47.932556,15.625000
2086.000000,-0.007191,0.010259,47.991734,15.625000
2087.000000,-0.004520,0.010232,48.045654,15.625000
2088.000000,-0.008793,0.010241,48.121319,15.625000
2089.000000,-0.013066,0.010245,48.209465,15.625000
2090.000000,-0.010243,0.010253,48.304642,15.625000
2091.000000,-0.009098,0.010257,48.392628,15.625000
2092.000000,-0.009709,0.010274,48.498333,15.625000
2093.000000,-0.009785,0.010278,48.602493,15.625000
2094.000000,-0.009327,0.010283,48.726151,15.625000
2095.000000,-0.008259,0.010259,48.863083,15.625000
2096.000000,-0.007649,0.010213,48.995281,15.625000
2097.000000,-0.009709,0.010241,49.145138,15.625000
2098.000000,-0.008259,0.010234,49.300205,15.625000
2099.000000,-0.010243,0.010221,49.465782,15.625000
2100.000000,-0.011730,0.010241,49.621502,15.625000
2101.000000,-0.010662,0.010281,49.783092,15.625000
2102.000000,-0.009060,0.010317,49.952274,15.625000
2103.000000,-0.007000,0.010328,50.147064,15.625000
2104.000000,-0.009213,0.010355,50.353504,15.625000
2105.000000,-0.010815,0.010359,50.538860,15.625000
2106.000000,-0.013104,0.010387,50.715214,15.625000
2107.000000,-0.013638,0.010408,50.895428,15.625000
2108.000000,-0.011501,0.010402,51.073982,15.625000
2109.000000,-0.011501,0.010444,51.272240,19.531250
2110.000000,-0.011501,0.010483,51.456314,19.531250
2111.000000,-0.011654,0.010547,51.641941,19.531250
2112.000000,-0.009823,0.010593,51.820854,19.531250
2113.000000,-0.011044,0.010614,51.980347,19.531250
2114.000000,-0.012951,0.010526,52.156940,19.531250
2115.000000,-0.013333,0.010489,52.335056,19.531250
2116.000000,-0.016842,0.010504,52.516201,19.531250
2117.000000,-0.015011,0.010576,52.673729,19.531250
2118.000000,-0.012417,0.010642,52.830524,19.531250
2119.000000,-0.012570,0.010700,52.969933,19.531250
2120.000000,-0.009136,0.010663,53.129333,19.531250
2121.000000,-0.010281,0.010636,53.278515,19.531250
2122.000000,-0.007382,0.010599,53.425636,19.531250
2123.000000,-0.008679,0.010586,53.556793,19.531250
2124.000000,-0.010510,0.010584,53.664295,19.531250
2125.000000,-0.012875,0.010624,53.776291,19.531250
2126.000000,-0.012188,0.010677,53.887394,19.531250
2127.000000,-0.012112,0.010727,53.992096,19.531250
2128.000000,-0.009289,0.010732,54.107861,19.531250
2129.000000,-0.007382,0.010684,54.228260,19.531250
2130.000000,-0.008984,0.010608,54.338154,19.531250
2131.000000,-0.007076,0.010515,54.435379,19.531250
2132.000000,-0.005398,0.010497,54.527939,19.531250
2133.000000,-0.005245,0.010498,54.596691,19.531250
2134.000000,-0.007992,0.010516,54.668991,19.531250
2135.000000,-0.010052,0.010533,54.722301,19.531250
2136.000000,-0.011425,0.010551,54.769035,19.531250
2137.000000,-0.012188,0.010598,54.827084,19.531250
2138.000000,-0.007382,0.010621,54.878662,19.531250
2139.000000,-0.007839,0.010640,54.906616,19.531250
2140.000000,-0.007305,0.010538,54.919762,19.531250
2141.000000,-0.006847,0.010349,54.923428,19.531250
2142.000000,-0.006237,0.010141,54.918301,19.531250
2143.000000,-0.006466,0.010047,54.921959,19.531250
2144.000000,-0.011120,0.010106,54.909618,19.531250
2145.000000,-0.011425,0.010159,54.890114,19.531250
2146.000000,-0.008755,0.010195,54.862923,19.531250
2147.000000,-0.011425,0.010234,54.819748,19.531250
2148.000000,-0.008679,0.010156,54.764187,19.531250
2149.000000,-0.008068,0.010004,54.701031,19.531250
2150.000000,-0.007229,0.009873,54.620964,19.531250
2151.000000,-0.007687,0.009801,54.534531,19.531250
2152.000000,-0.008450,0.009764,54.440746,19.531250
2153.000000,-0.005932,0.009718,54.339588,19.531250
2154.000000,-0.011273,0.009726,54.242245,19.531250
2155.000000,-0.011196,0.009727,54.136570,19.531250
2156.000000,-0.010433,0.009688,54.015816,19.531250
2157.000000,-0.008907,0.009627,53.893780,19.531250
2158.000000,-0.009060,0.009633,53.759930,19.531250
2159.000000,-0.009365,0.009620,53.622036,19.531250
2160.000000,-0.007458,0.009587,53.482136,19.531250
2161.000000,-0.003033,0.009469,53.329098,19.531250
2162.000000,-0.003262,0.009370,53.174061,19.531250
2163.000000,-0.006924,0.009298,53.025414,19.531250
2164.000000,-0.012570,0.009325,52.882706,19.531250
2165.000000,-0.011807,0.009372,52.744816,19.531250
2166.000000,-0.010586,0.009399,52.596306,15.625000
2167.000000,-0.007687,0.009391,52.443615,15.625000
2168.000000,-0.006847,0.009377,52.296379,15.625000
2169.000000,-0.005550,0.009355,52.154274,15.625000
2170.000000,-0.005169,0.009349,52.017399,15.625000
2171.000000,-0.003491,0.009348,51.883469,15.625000
2172.000000,-0.006695,0.009352,51.749966,15.625000
2173.000000,-0.007687,0.009372,51.618660,15.625000
2174.000000,-0.010204,0.009404,51.486336,15.625000
2175.000000,-0.008373,0.009427,51.346676,15.625000
2176.000000,-0.010739,0.009480,51.216015,15.625000
2177.000000,-0.010052,0.009512,51.081470,15.625000
2178.000000,-0.008755,0.009528,50.949963,15.625000
2179.000000,-0.006619,0.009523,50.822067,15.625000
2180.000000,-0.007229,0.009525,50.689175,15.625000
2181.000000,-0.004253,0.009512,50.554462,15.625000
2182.000000,-0.005932,0.009511,50.430817,15.625000
2183.000000,-0.012188,0.009567,50.309475,15.625000
2184.000000,-0.011883,0.009611,50.232388,15.625000
2185.000000,-0.010891,0.009626,50.154327,15.625000
2186.000000,-0.010586,0.009657,50.073868,15.625000
2187.000000,-0.009594,0.009694,49.992561,15.625000
2188.000000,-0.006847,0.009678,49.917908,15.625000
2189.000000,-0.009823,0.009640,49.832851,15.625000
2190.000000,-0.011501,0.009654,49.755447,15.625000
2191.000000,-0.008297,0.009647,49.683228,15.625000
2192.000000,-0.007839,0.009630,49.617088,15.625000
2193.000000,-0.007839,0.009612,49.555485,15.625000
2194.000000,-0.008450,0.009604,49.496887,15.625000
2195.000000,-0.009747,0.009618,49.436008,15.625000
2196.000000,-0.011730,0.009659,49.382359,15.625000
2197.000000,-0.011883,0.009683,49.342468,15.625000
2198.000000,-0.010052,0.009700,49.304417,15.625000
2199.000000,-0.008373,0.009682,49.268719,15.625000
2200.000000,-0.007992,0.009644,49.237507,15.625000
2201.000000,-0.006161,0.009605,49.205406,15.625000
2202.000000,-0.007610,0.009592,49.181412,15.625000
2203.000000,-0.006008,0.009585,49.165215,15.625000
2204.000000,-0.007534,0.009571,49.152176,15.625000
2205.000000,-0.009670,0.009559,49.162380,15.625000
2206.000000,-0.011273,0.009535,49.169067,15.625000
2207.000000,-0.010128,0.009491,49.173630,15.625000
2208.000000,-0.008679,0.009461,49.180424,15.625000
2209.000000,-0.008373,0.009428,49.184589,15.625000
2210.000000,-0.008068,0.009393,49.192310,15.625000
2211.000000,-0.006771,0.009345,49.215935,15.625000
2212.000000,-0.007992,0.009327,49.243198,15.625000
2213.000000,-0.008373,0.009299,49.269836,15.625000
2214.000000,-0.006695,0.009233,49.305817,15.625000
2215.000000,-0.008984,0.009180,49.336384,15.625000
2216.000000,-0.009213,0.009071,49.388626,15.625000
2217.000000,-0.010967,0.009013,49.453609,15.625000
2218.000000,-0.009518,0.008978,49.525974,15.625000
2219.000000,-0.009518,0.008940,49.591087,15.625000
2220.000000,-0.009823,0.008948,49.673828,15.625000
2221.000000,-0.010128,0.008946,49.754906,15.625000
2222.000000,-0.007992,0.008951,49.855606,15.625000
2223.000000,-0.006924,0.008936,49.969921,15.625000
2224.000000,-0.010281,0.008933,50.079685,15.625000
2225.000000,-0.009518,0.008891,50.207401,15.625000
2226.000000,-0.009442,0.008857,50.340508,15.625000
2227.000000,-0.011120,0.008844,50.484360,15.625000
2228.000000,-0.009823,0.008850,50.618538,15.625000
2229.000000,-0.010510,0.008882,50.758862,15.625000
2230.000000,-0.009747,0.008890,50.907097,15.625000
2231.000000,-0.008831,0.008906,51.081310,15.625000
2232.000000,-0.008145,0.008926,51.267570,19.531250
2233.000000,-0.007839,0.008945,51.433044,19.531250
2234.000000,-0.006924,0.008936,51.589836,19.531250
2235.000000,-0.007839,0.008914,51.750889,19.531250
2236.000000,-0.010739,0.008906,51.910587,19.531250
2237.000000,-0.011959,0.008903,52.090435,19.531250
2238.000000,-0.008907,0.008917,52.256500,19.531250
2239.000000,-0.007458,0.008913,52.424816,19.531250
2240.000000,-0.008602,0.008925,52.586803,19.531250
2241.000000,-0.007305,0.008929,52.729889,19.531250
2242.000000,-0.008068,0.008943,52.890404,19.531250
2243.000000,-0.003567,0.008927,53.052822,19.531250
2244.000000,-0.006771,0.008883,53.219128,19.531250
2245.000000,-0.009365,0.008859,53.362560,19.531250
2246.000000,-0.009976,0.008872,53.505665,19.531250
2247.000000,-0.008679,0.008841,53.631699,19.531250
2248.000000,-0.010510,0.008861,53.777931,19.531250
2249.000000,-0.009518,0.008875,53.914192,19.531250
2250.000000,-0.007229,0.008875,54.049332,19.531250
2251.000000,-0.007305,0.008872,54.169086,19.531250
2252.000000,-0.006466,0.008855,54.266251,19.531250
2253.000000,-0.007305,0.008865,54.368153,19.531250
2254.000000,-0.008679,0.008836,54.470158,19.531250
2255.000000,-0.008221,0.008803,54.566219,19.531250
2256.000000,-0.008526,0.008783,54.674126,19.531250
2257.000000,-0.009442,0.008788,54.786865,19.531250
2258.000000,-0.010891,0.008809,54.889435,19.531250
2259.000000,-0.010433,0.008821,54.979603,19.531250
2260.000000,-0.008984,0.008835,55.065327,19.531250
2261.000000,-0.006466,0.008854,55.128437,19.531250
2262.000000,-0.005016,0.008862,55.195339,19.531250
2263.000000,-0.005779,0.008854,55.243389,19.531250
2264.000000,-0.008526,0.008805,55.285454,19.531250
2265.000000,-0.009365,0.008776,55.339645,19.531250
2266.000000,-0.009518,0.008764,55.387943,19.531250
2267.000000,-0.010128,0.008789,55.412605,19.531250
2268.000000,-0.010052,0.008819,55.422607,19.531250
2269.000000,-0.010510,0.008864,55.423157,19.531250
2270.000000,-0.007000,0.008877,55.415134,19.531250
2271.000000,-0.006847,0.008897,55.416115,19.531250
2272.000000,-0.005550,0.008889,55.401463,19.531250
2273.000000,-0.007076,0.008884,55.380165,19.531250
2274.000000,-0.007992,0.008861,55.351334,19.531250
2275.000000,-0.010891,0.008888,55.306736,19.531250
2276.000000,-0.012264,0.008908,55.249645,19.531250
2277.000000,-0.014477,0.008969,55.185120,19.531250
2278.000000,-0.011425,0.008999,55.104107,19.531250
2279.000000,-0.011273,0.009045,55.016701,19.531250
2280.000000,-0.010128,0.009073,54.921947,19.531250
2281.000000,-0.008984,0.009107,54.820045,19.531250
2282.000000,-0.009823,0.009141,54.722088,19.531250
2283.000000,-0.010128,0.009115,54.615688,19.531250
2284.000000,-0.010815,0.009102,54.494350,19.531250
2285.000000,-0.011959,0.009115,54.371708,19.531250
2286.000000,-0.013561,0.009155,54.237339,19.531250
2287.000000,-0.014477,0.009219,54.098892,19.531250
2288.000000,-0.013867,0.009297,53.958549,19.531250
2289.000000,-0.015469,0.009374,53.805035,19.531250
2290.000000,-0.012264,0.009383,53.649281,19.531250
2291.000000,-0.012875,0.009435,53.499863,19.531250
2292.000000,-0.007839,0.009435,53.356491,19.531250
2293.000000,-0.010510,0.009461,53.218166,19.531250
2294.000000,-0.012417,0.009505,53.069324,19.531250
2295.000000,-0.012417,0.009536,52.916210,19.531250
2296.000000,-0.010510,0.009521,52.767860,15.625000
2297.000000,-0.013867,0.009548,52.623932,15.625000
2298.000000,-0.012722,0.009580,52.485428,15.625000
2299.000000,-0.010662,0.009603,52.350121,15.625000
2300.000000,-0.012684,0.009653,52.216194,15.625000
2301.000000,-0.009632,0.009681,52.083584,15.625000
2302.000000,-0.007649,0.009682,51.948727,15.625000
2303.000000,-0.010319,0.009718,51.806656,15.625000
2304.000000,-0.010166,0.009742,51.676289,15.625000
2305.000000,-0.010777,0.009754,51.542183,15.625000
2306.000000,-0.008335,0.009724,51.411339,15.625000
2307.000000,-0.010090,0.009724,51.283283,15.625000
2308.000000,-0.010090,0.009737,51.146770,15.625000
2309.000000,-0.009632,0.009749,51.008022,15.625000
2310.000000,-0.007725,0.009746,50.881969,15.625000
2311.000000,-0.008106,0.009756,50.758778,15.625000
2312.000000,-0.007496,0.009752,50.681892,15.625000
2313.000000,-0.007267,0.009743,50.604752,15.625000
2314.000000,-0.009937,0.009771,50.525246,15.625000
2315.000000,-0.010700,0.009788,50.443726,15.625000
2316.000000,-0.008488,0.009782,50.368404,15.625000
2317.000000,-0.009251,0.009764,50.282532,15.625000
2318.000000,-0.009174,0.009761,50.204571,15.625000
2319.000000,-0.008259,0.009749,50.131813,15.625000
2320.000000,-0.009861,0.009750,50.065704,15.625000
2321.000000,-0.007801,0.009728,50.004200,15.625000
2322.000000,-0.005589,0.009711,49.944180,15.625000
2323.000000,-0.007954,0.009719,49.882107,15.625000
2324.000000,-0.010014,0.009717,49.827713,15.625000
2325.000000,-0.010395,0.009726,49.787708,15.625000
2326.000000,-0.009174,0.009723,49.749290,15.625000
2327.000000,-0.008640,0.009698,49.713226,15.625000
2328.000000,-0.010090,0.009700,49.680889,15.625000
2329.000000,-0.011158,0.009708,49.647446,15.625000
2330.000000,-0.009556,0.009706,49.622536,15.625000
2331.000000,-0.006657,0.009688,49.605186,15.625000
2332.000000,-0.004978,0.009667,49.590637,15.625000
2333.000000,-0.005970,0.009654,49.599323,15.625000
2334.000000,-0.007343,0.009657,49.604259,15.625000
2335.000000,-0.008106,0.009659,49.606686,15.625000
2336.000000,-0.009480,0.009646,49.611420,15.625000
2337.000000,-0.012760,0.009656,49.612976,15.625000
2338.000000,-0.011845,0.009688,49.618729,15.625000
2339.000000,-0.010090,0.009711,49.640663,15.625000
2340.000000,-0.007420,0.009702,49.666275,15.625000
2341.000000,-0.007191,0.009701,49.691509,15.625000
2342.000000,-0.006657,0.009690,49.725887,15.625000
2343.000000,-0.003300,0.009689,49.754761,15.625000
2344.000000,-0.008869,0.009706,49.804993,15.625000
2345.000000,-0.010166,0.009714,49.867214,15.625000
2346.000000,-0.013142,0.009752,49.936825,15.625000
2347.000000,-0.013066,0.009800,49.999550,15.625000
2348.000000,-0.011234,0.009808,50.080765,15.625000
2349.000000,-0.010395,0.009817,50.160725,15.625000
2350.000000,-0.009480,0.009836,50.259937,15.625000
2351.000000,-0.009861,0.009859,50.372906,15.625000
2352.000000,-0.008106,0.009871,50.480984,15.625000
2353.000000,-0.009174,0.009886,50.607620,15.625000
2354.000000,-0.009556,0.009895,50.738441,15.625000
2355.000000,-0.009327,0.009904,50.879768,15.625000
2356.000000,-0.011997,0.009940,51.011845,15.625000
2357.000000,-0.014057,0.009995,51.150230,15.625000
2358.000000,-0.010548,0.009991,51.296604,19.531250
2359.000000,-0.011006,0.009997,51.468678,19.531250
2360.000000,-0.009403,0.010001,51.653011,19.531250
2361.000000,-0.007801,0.010011,51.816666,19.531250
2362.000000,-0.005055,0.010011,51.971214,19.531250
2363.000000,-0.008030,0.010026,52.130421,19.531250
2364.000000,-0.009403,0.010034,52.288002,19.531250
2365.000000,-0.011463,0.010056,52.465160,19.531250
2366.000000,-0.010395,0.010064,52.628845,19.531250
2367.000000,-0.008717,0.010051,52.794285,19.531250
2368.000000,-0.007496,0.010029,52.954090,19.531250
2369.000000,-0.008259,0.010008,53.095509,19.531250
2370.000000,-0.006123,0.010002,53.255112,19.531250
2371.000000,-0.003910,0.009986,53.416054,19.531250
2372.000000,-0.006580,0.009993,53.580311,19.531250
2373.000000,-0.007038,0.009992,53.721386,19.531250
2374.000000,-0.009174,0.010002,53.862236,19.531250
2375.000000,-0.009556,0.009989,53.986160,19.531250
2376.000000,-0.009327,0.009957,54.130196,19.531250
2377.000000,-0.008640,0.009889,54.264244,19.531250
2378.000000,-0.004902,0.009835,54.397346,19.531250
2379.000000,-0.002918,0.009775,54.514938,19.531250
2380.000000,-0.008640,0.009760,54.609612,19.531250
2381.000000,-0.008488,0.009756,54.708752,19.531250
2382.000000,-0.007115,0.009732,54.807999,19.531250
2383.000000,-0.006809,0.009703,54.901276,19.531250
2384.000000,-0.007343,0.009671,55.006592,19.531250
2385.000000,-0.009785,0.009646,55.116642,19.531250
2386.000000,-0.010243,0.009605,55.216461,19.531250
2387.000000,-0.011082,0.009560,55.303528,19.531250
2388.000000,-0.010014,0.009512,55.386524,19.531250
2389.000000,-0.008183,0.009421,55.446598,19.531250
2390.000000,-0.008259,0.009377,55.510315,19.531250
2391.000000,-0.008030,0.009323,55.555084,19.531250
2392.000000,-0.005283,0.009305,55.594437,19.531250
2393.000000,-0.008869,0.009288,55.646767,19.531250
2394.000000,-0.014134,0.009312,55.693085,19.531250
2395.000000,-0.012837,0.009318,55.716389,19.531250
2396.000000,-0.011158,0.009325,55.725243,19.531250
2397.000000,-0.012760,0.009310,55.724449,19.531250
2398.000000,-0.010243,0.009279,55.714706,19.531250
