emgT,emg,rms,mnf,mdf
0.000000,-0.040150,0.004015,0.000000,0.000000
1.000000,-0.036870,0.005451,0.000000,0.000000
2.000000,-0.037022,0.006589,0.000000,0.000000
3.000000,-0.038624,0.007638,0.000000,0.000000
4.000000,-0.039693,0.008608,0.000000,0.000000
5.000000,-0.039464,0.009469,0.000000,0.000000
6.000000,-0.042363,0.010374,0.000000,0.000000
7.000000,-0.043126,0.011234,0.000000,0.000000
8.000000,-0.038014,0.011860,1.307502,0.000000
9.000000,-0.036793,0.012418,1.320587,0.000000
10.000000,-0.039693,0.013037,1.340873,0.000000
11.000000,-0.039845,0.013632,1.367653,0.000000
12.000000,-0.039082,0.014181,1.400857,0.000000
13.000000,-0.039235,0.014714,1.441623,0.000000
14.000000,-0.038396,0.015207,1.486300,0.000000
15.000000,-0.039616,0.015714,1.536707,0.000000
16.000000,-0.038701,0.016184,1.601487,0.000000
17.000000,-0.039464,0.016658,1.676745,0.000000
18.000000,-0.042363,0.017188,1.755227,0.000000
19.000000,-0.041447,0.017681,1.841112,0.000000
20.000000,-0.036488,0.018053,1.936326,0.000000
21.000000,-0.035725,0.018404,2.038916,0.000000
22.000000,-0.036259,0.018757,2.151275,0.000000
23.000000,-0.036259,0.019105,2.267870,0.000000
24.000000,-0.037556,0.019470,2.394248,0.000000
25.000000,-0.039387,0.019865,2.525341,0.000000
26.000000,-0.039921,0.020262,2.653472,0.000000
27.000000,-0.039769,0.020648,2.790252,0.000000
28.000000,-0.034962,0.020942,2.950276,0.000000
29.000000,-0.029011,0.021142,3.119955,0.000000
30.000000,-0.032902,0.021397,3.294178,0.000000
31.000000,-0.031224,0.021623,3.474484,0.000000
32.000000,-0.033055,0.021875,3.654863,0.000000
33.000000,-0.037709,0.022197,3.831953,0.000000
34.000000,-0.036488,0.022495,4.010590,0.000000
35.000000,-0.034810,0.022763,4.193420,0.000000
36.000000,-0.030919,0.022972,4.402347,0.000000
37.000000,-0.030308,0.023171,4.644807,0.000000
38.000000,-0.033131,0.023407,4.872478,0.000000
39.000000,-0.034657,0.023662,5.112527,3.906250
40.000000,-0.032292,0.023881,5.345936,3.906250
41.000000,-0.031682,0.024090,5.555764,3.906250
42.000000,-0.029698,0.024273,5.773415,3.906250
43.000000,-0.030613,0.024465,6.001372,3.906250
44.000000,-0.032444,0.024679,6.252454,3.906250
45.000000,-0.034504,0.024919,6.507951,3.906250
46.000000,-0.035039,0.025164,6.746894,3.906250
47.000000,-0.033665,0.025389,6.976085,3.906250
48.000000,-0.026570,0.025527,7.218571,3.906250
49.000000,-0.024662,0.025646,7.463543,3.906250
50.000000,-0.030613,0.025828,7.719176,3.906250
51.000000,-0.031453,0.026019,7.967263,3.906250
52.000000,-0.032597,0.026222,8.201605,3.906250
53.000000,-0.030919,0.026404,8.420410,3.906250
54.000000,-0.029545,0.026569,8.632984,3.906250
55.000000,-0.025425,0.026690,8.850938,3.906250
56.000000,-0.026341,0.026820,9.109298,3.906250
57.000000,-0.024052,0.026927,9.375728,3.906250
58.000000,-0.027485,0.027067,9.601197,3.906250
59.000000,-0.026799,0.027200,9.817331,3.906250
60.000000,-0.025578,0.027320,10.022238,3.906250
61.000000,-0.024662,0.027431,10.233003,3.906250
62.000000,-0.022374,0.027522,10.447429,3.906250
63.000000,-0.024281,0.027629,10.681467,3.906250
64.000000,-0.023594,0.027729,10.904777,3.906250
65.000000,-0.023289,0.027827,11.136034,3.906250
66.000000,-0.025349,0.027942,11.341743,3.906250
67.000000,-0.024434,0.028049,11.545964,3.906250
68.000000,-0.020161,0.028121,11.751500,3.906250
69.000000,-0.018635,0.028183,11.956347,3.906250
70.000000,-0.021153,0.028262,12.167731,3.906250
71.000000,-0.021916,0.028347,12.362569,3.906250
72.000000,-0.023899,0.028448,12.555023,3.906250
73.000000,-0.021687,0.028530,12.742949,3.906250
74.000000,-0.025654,0.028645,12.914318,3.906250
75.000000,-0.021839,0.028728,13.084581,3.906250
76.000000,-0.019474,0.028794,13.269799,3.906250
77.000000,-0.018940,0.028856,13.455649,3.906250
78.000000,-0.022984,0.028948,13.622947,3.906250
79.000000,-0.023136,0.029040,13.780554,3.906250
80.000000,-0.021839,0.029122,13.923470,3.906250
81.000000,-0.022221,0.029207,14.070479,3.906250
82.000000,-0.018940,0.029268,14.195219,3.906250
83.000000,-0.018711,0.029328,14.330669,3.906250
84.000000,-0.020695,0.029401,14.469900,3.906250
85.000000,-0.023060,0.029491,14.605237,3.906250
86.000000,-0.021687,0.029571,14.719851,3.906250
87.000000,-0.020771,0.029644,14.829167,3.906250
88.000000,-0.017796,0.029697,14.938345,3.906250
89.000000,-0.015049,0.029735,15.041525,3.906250
90.000000,-0.016423,0.029780,15.150600,3.906250
91.000000,-0.019780,0.029846,15.255212,3.906250
92.000000,-0.017262,0.029896,15.348978,3.906250
93.000000,-0.017948,0.029950,15.431725,3.906250
94.000000,-0.022526,0.030034,15.514455,3.906250
95.000000,-0.018254,0.030090,15.595648,3.906250
96.000000,-0.008183,0.030101,15.680125,3.906250
97.000000,-0.016804,0.030148,15.766407,7.812500
98.000000,-0.016499,0.030193,15.844646,7.812500
99.000000,-0.019398,0.030255,15.911427,7.812500
100.000000,-0.024205,0.030085,15.979498,7.812500
101.000000,-0.025425,0.029966,16.042271,7.812500
102.000000,-0.025044,0.029842,16.093494,7.812500
103.000000,-0.023823,0.029687,16.148972,7.812500
104.000000,-0.023518,0.029514,16.215858,7.812500
105.000000,-0.026112,0.029365,16.265484,7.812500
106.000000,-0.024968,0.029165,16.312038,7.812500
107.000000,-0.027104,0.028972,16.351957,7.812500
108.000000,-0.023823,0.028820,16.384350,7.812500
109.000000,-0.024739,0.028691,16.414087,7.812500
110.000000,-0.022831,0.028507,16.442938,7.812500
111.000000,-0.023213,0.028322,16.471504,7.812500
112.000000,-0.027485,0.028185,16.498930,7.812500
113.000000,-0.024128,0.028015,16.523609,7.812500
114.000000,-0.023213,0.027848,16.548061,7.812500
115.000000,-0.024281,0.027671,16.570808,7.812500
116.000000,-0.022908,0.027495,16.594072,7.812500
117.000000,-0.022984,0.027307,16.616198,7.812500
118.000000,-0.026112,0.027102,16.637831,7.812500
119.000000,-0.026188,0.026911,16.658474,7.812500
120.000000,-0.025502,0.026785,16.678476,7.812500
121.000000,-0.022679,0.026642,16.697975,7.812500
122.000000,-0.023213,0.026496,16.716719,7.812500
123.000000,-0.021839,0.026337,16.735126,7.812500
124.000000,-0.023976,0.026178,16.752607,7.812500
125.000000,-0.024205,0.025993,16.769547,7.812500
126.000000,-0.024586,0.025802,16.787645,7.812500
127.000000,-0.025807,0.025624,16.805832,7.812500
128.000000,-0.022831,0.025487,16.823652,7.812500
129.000000,-0.021687,0.025414,16.839392,7.812500
130.000000,-0.022374,0.025299,16.855249,7.812500
131.000000,-0.025196,0.025232,16.869667,7.812500
132.000000,-0.024510,0.025134,16.885853,7.812500
133.000000,-0.022068,0.024948,16.902319,7.812500
134.000000,-0.023213,0.024788,16.919338,7.812500
135.000000,-0.021382,0.024636,16.938065,7.812500
136.000000,-0.019474,0.024518,16.952265,7.812500
137.000000,-0.019169,0.024406,16.963020,7.812500
138.000000,-0.024434,0.024303,16.972731,7.812500
139.000000,-0.024357,0.024177,16.984478,7.812500
140.000000,-0.021458,0.024057,16.993263,7.812500
141.000000,-0.020085,0.023932,16.996351,7.812500
142.000000,-0.018711,0.023820,16.998240,7.812500
143.000000,-0.017948,0.023691,16.994345,7.812500
144.000000,-0.019474,0.023548,16.987103,7.812500
145.000000,-0.019169,0.023373,16.977907,7.812500
146.000000,-0.022374,0.023217,16.975548,7.812500
147.000000,-0.020237,0.023060,16.971468,7.812500
148.000000,-0.016117,0.022963,16.960333,7.812500
149.000000,-0.014820,0.022879,16.944372,7.812500
150.000000,-0.017643,0.022741,16.924200,7.812500
151.000000,-0.017796,0.022593,16.899273,7.812500
152.000000,-0.020466,0.022450,16.876898,7.812500
153.000000,-0.020314,0.022329,16.851324,7.812500
154.000000,-0.019017,0.022214,16.828911,7.812500
155.000000,-0.018559,0.022146,16.800421,7.812500
156.000000,-0.016804,0.022053,16.765474,7.812500
157.000000,-0.012989,0.021960,16.726479,7.812500
158.000000,-0.019474,0.021874,16.693071,7.812500
159.000000,-0.020466,0.021805,16.658953,7.812500
160.000000,-0.017185,0.021723,16.629572,7.812500
161.000000,-0.017796,0.021656,16.596109,7.812500
162.000000,-0.019398,0.021627,16.556932,7.812500
163.000000,-0.018025,0.021566,16.515509,7.812500
164.000000,-0.016575,0.021500,16.475941,7.812500
165.000000,-0.018330,0.021452,16.434511,7.812500
166.000000,-0.021382,0.021409,16.406433,7.812500
167.000000,-0.020619,0.021369,16.384924,7.812500
168.000000,-0.014439,0.021322,16.349726,7.812500
169.000000,-0.016041,0.021301,16.307402,7.812500
170.000000,-0.017109,0.021265,16.272776,7.812500
171.000000,-0.018864,0.021236,16.237309,7.812500
172.000000,-0.018330,0.021180,16.205885,7.812500
173.000000,-0.019474,0.021159,16.182838,7.812500
174.000000,-0.015660,0.021061,16.165190,7.812500
175.000000,-0.016117,0.021009,16.142496,7.812500
176.000000,-0.013981,0.020966,16.104834,7.812500
177.000000,-0.015888,0.020940,16.075672,7.812500
178.000000,-0.017262,0.020885,16.056990,3.906250
179.000000,-0.017033,0.020826,16.044289,3.906250
180.000000,-0.016270,0.020775,16.026894,3.906250
181.000000,-0.014820,0.020709,16.010101,3.906250
182.000000,-0.013294,0.020665,15.979801,3.906250
183.000000,-0.012455,0.020618,15.957064,3.906250
184.000000,-0.011540,0.020546,15.949262,3.906250
185.000000,-0.012379,0.020454,15.957219,3.906250
186.000000,-0.015583,0.020398,15.955991,3.906250
187.000000,-0.015965,0.020355,15.954383,3.906250
188.000000,-0.011997,0.020313,15.949458,3.906250
189.000000,-0.009709,0.020280,15.947457,3.906250
190.000000,-0.011540,0.020246,15.947476,3.906250
191.000000,-0.011845,0.020184,15.961095,3.906250
192.000000,-0.012303,0.020148,15.972273,3.906250
193.000000,-0.011082,0.020098,15.997854,3.906250
194.000000,-0.011158,0.020003,16.027910,3.906250
195.000000,-0.013142,0.019963,16.065336,3.906250
196.000000,-0.010243,0.019972,16.096170,3.906250
197.000000,-0.008869,0.019921,16.125685,3.906250
198.000000,-0.014057,0.019902,16.173342,3.906250
199.000000,-0.016194,0.019874,16.219440,3.906250
200.000000,-0.016690,0.019796,16.273066,3.906250
201.000000,-0.013333,0.019677,16.326885,3.906250
202.000000,-0.015850,0.019582,16.377348,3.906250
203.000000,-0.012799,0.019478,16.440813,3.906250
204.000000,-0.014553,0.019391,16.511642,3.906250
205.000000,-0.018215,0.019300,16.585663,3.906250
206.000000,-0.021038,0.019253,16.670887,3.906250
207.000000,-0.018902,0.019155,16.762325,3.906250
208.000000,-0.017681,0.019088,16.850105,3.906250
209.000000,-0.012493,0.018969,16.935602,3.906250
210.000000,-0.015316,0.018893,17.016947,3.906250
211.000000,-0.015545,0.018814,17.101940,3.906250
212.000000,-0.015927,0.018680,17.199987,3.906250
213.000000,-0.016766,0.018599,17.309896,3.906250
214.000000,-0.017453,0.018536,17.414055,3.906250
215.000000,-0.018368,0.018468,17.510321,3.906250
216.000000,-0.015393,0.018390,17.605656,3.906250
217.000000,-0.014782,0.018306,17.684824,3.906250
218.000000,-0.015850,0.018188,17.779131,3.906250
219.000000,-0.019818,0.018107,17.872313,3.906250
220.000000,-0.018368,0.018020,17.958416,3.906250
221.000000,-0.018444,0.017972,18.037615,3.906250
222.000000,-0.014935,0.017884,18.119213,3.906250
223.000000,-0.016842,0.017830,18.201899,3.906250
224.000000,-0.016537,0.017745,18.282246,3.906250
225.000000,-0.019207,0.017684,18.363995,7.812500
226.000000,-0.020886,0.017636,18.440487,7.812500
227.000000,-0.019741,0.017558,18.512646,7.812500
228.000000,-0.015545,0.017478,18.583048,7.812500
229.000000,-0.014248,0.017401,18.647648,7.812500
230.000000,-0.016079,0.017331,18.694559,7.812500
231.000000,-0.018826,0.017250,18.748150,7.812500
232.000000,-0.018215,0.017172,18.812618,7.812500
233.000000,-0.018368,0.017129,18.861629,7.812500
234.000000,-0.016384,0.017050,18.908012,7.812500
235.000000,-0.016461,0.016995,18.944544,7.812500
236.000000,-0.015469,0.016954,18.967554,7.812500
237.000000,-0.012493,0.016891,18.985666,7.812500
238.000000,-0.015011,0.016781,19.003532,7.812500
239.000000,-0.015774,0.016678,19.022018,7.812500
240.000000,-0.016918,0.016626,19.037413,7.812500
241.000000,-0.012112,0.016548,19.048517,7.812500
242.000000,-0.011578,0.016483,19.057007,7.812500
243.000000,-0.011273,0.016423,19.062542,7.812500
244.000000,-0.014172,0.016369,19.067181,7.812500
245.000000,-0.012417,0.016304,19.068697,7.812500
246.000000,-0.015469,0.016223,19.069649,7.812500
247.000000,-0.013333,0.016152,19.068695,7.812500
248.000000,-0.010662,0.016107,19.066103,7.812500
249.000000,-0.007763,0.016057,19.061556,7.812500
250.000000,-0.010739,0.015996,19.055559,7.812500
251.000000,-0.015164,0.015969,19.048622,7.812500
252.000000,-0.014172,0.015900,19.039829,7.812500
253.000000,-0.014172,0.015834,19.029856,7.812500
254.000000,-0.013180,0.015774,19.019823,7.812500
255.000000,-0.012722,0.015716,19.009436,7.812500
256.000000,-0.014324,0.015692,18.998695,7.812500
257.000000,-0.012112,0.015685,18.986183,7.812500
258.000000,-0.015850,0.015644,18.972366,7.812500
259.000000,-0.014858,0.015580,18.954523,7.812500
260.000000,-0.011349,0.015527,18.938122,7.812500
261.000000,-0.010357,0.015459,18.921164,7.812500
262.000000,-0.010357,0.015372,18.904535,7.812500
263.000000,-0.016003,0.015349,18.889265,7.812500
264.000000,-0.017224,0.015357,18.893566,7.812500
265.000000,-0.017376,0.015345,18.894236,7.812500
266.000000,-0.016003,0.015280,18.892353,7.812500
267.000000,-0.017376,0.015239,18.895008,7.812500
268.000000,-0.016308,0.015258,18.898006,7.812500
269.000000,-0.007534,0.015192,18.896088,7.812500
270.000000,-0.007839,0.015116,18.895222,7.812500
271.000000,-0.009976,0.015031,18.886221,7.812500
272.000000,-0.016613,0.015011,18.871086,7.812500
273.000000,-0.016079,0.014971,18.854059,7.812500
274.000000,-0.016079,0.014975,18.847538,7.812500
275.000000,-0.013867,0.014953,18.839481,7.812500
276.000000,-0.014706,0.014960,18.825035,7.812500
277.000000,-0.012036,0.014924,18.810963,7.812500
278.000000,-0.014782,0.014897,18.792627,7.812500
279.000000,-0.014553,0.014871,18.769646,7.812500
280.000000,-0.012799,0.014837,18.746801,7.812500
281.000000,-0.012722,0.014817,18.722195,7.812500
282.000000,-0.010433,0.014794,18.703312,7.812500
283.000000,-0.012493,0.014795,18.679518,7.812500
284.000000,-0.013561,0.014812,18.647318,7.812500
285.000000,-0.012875,0.014816,18.612682,7.812500
286.000000,-0.013561,0.014796,18.584141,7.812500
287.000000,-0.013943,0.014776,18.556023,7.812500
288.000000,-0.012417,0.014779,18.535309,7.812500
289.000000,-0.011425,0.014791,18.512066,7.812500
290.000000,-0.009823,0.014779,18.484810,7.812500
291.000000,-0.007839,0.014752,18.455254,7.812500
292.000000,-0.008602,0.014726,18.426491,7.812500
293.000000,-0.011349,0.014728,18.394791,7.812500
294.000000,-0.009594,0.014717,18.379658,7.812500
295.000000,-0.008755,0.014684,18.371817,7.812500
296.000000,-0.004559,0.014656,18.351570,7.812500
297.000000,-0.005856,0.014641,18.326742,7.812500
298.000000,-0.010433,0.014610,18.311159,7.812500
299.000000,-0.013256,0.014581,18.295551,7.812500
300.000000,-0.017567,0.014591,18.283499,7.812500
301.000000,-0.013371,0.014591,18.280190,7.812500
302.000000,-0.005970,0.014517,18.285023,7.812500
303.000000,-0.004368,0.014467,18.285831,7.812500
304.000000,-0.012684,0.014450,18.271446,7.812500
305.000000,-0.013523,0.014398,18.266134,7.812500
306.000000,-0.017414,0.014350,18.270794,7.812500
307.000000,-0.018177,0.014340,18.281862,7.812500
308.000000,-0.018330,0.014348,18.287441,3.906250
309.000000,-0.014591,0.014368,18.295679,3.906250
310.000000,-0.015736,0.014373,18.291292,3.906250
311.000000,-0.017414,0.014394,18.294928,3.906250
312.000000,-0.020237,0.014448,18.311020,3.906250
313.000000,-0.022221,0.014522,18.343538,3.906250
314.000000,-0.018940,0.014540,18.366140,3.906250
315.000000,-0.015660,0.014509,18.387867,3.906250
316.000000,-0.013752,0.014492,18.405596,3.906250
317.000000,-0.015812,0.014503,18.426401,3.906250
318.000000,-0.021839,0.014581,18.447916,3.906250
319.000000,-0.022145,0.014614,18.481915,3.906250
320.000000,-0.018788,0.014619,18.511454,3.906250
321.000000,-0.017643,0.014609,18.554260,3.906250
322.000000,-0.014668,0.014607,18.602934,3.906250
323.000000,-0.011769,0.014557,18.659430,3.906250
324.000000,-0.011082,0.014505,18.707449,3.906250
325.000000,-0.014363,0.014449,18.751385,3.906250
326.000000,-0.017720,0.014407,18.810598,3.906250
327.000000,-0.014744,0.014347,18.866821,3.906250
328.000000,-0.010090,0.014298,18.930843,3.906250
329.000000,-0.008564,0.014252,18.993721,3.906250
330.000000,-0.010243,0.014198,19.053610,3.906250
331.000000,-0.010624,0.014113,19.127441,3.906250
332.000000,-0.010014,0.014031,19.206167,3.906250
333.000000,-0.008946,0.013939,19.284338,3.906250
334.000000,-0.009174,0.013873,19.372812,3.906250
335.000000,-0.010166,0.013812,19.468651,3.906250
336.000000,-0.007420,0.013745,19.562643,3.906250
337.000000,-0.007420,0.013708,19.652336,3.906250
338.000000,-0.011692,0.013676,19.737232,3.906250
339.000000,-0.009403,0.013617,19.822657,3.906250
340.000000,-0.008869,0.013541,19.920528,3.906250
341.000000,-0.007343,0.013506,20.030823,3.906250
342.000000,-0.009251,0.013489,20.135698,3.906250
343.000000,-0.009174,0.013473,20.230316,3.906250
344.000000,-0.010090,0.013436,20.323849,3.906250
345.000000,-0.008946,0.013408,20.398748,3.906250
346.000000,-0.010166,0.013357,20.485836,3.906250
347.000000,-0.012074,0.013345,20.572210,3.906250
348.000000,-0.009709,0.013338,20.651545,3.906250
349.000000,-0.005589,0.013327,20.724800,3.906250
350.000000,-0.008412,0.013311,20.798695,7.812500
351.000000,-0.010014,0.013262,20.873171,7.812500
352.000000,-0.010929,0.013231,20.943035,7.812500
353.000000,-0.012913,0.013218,21.013681,7.812500
354.000000,-0.013981,0.013226,21.078598,7.812500
355.000000,-0.010929,0.013210,21.139530,7.812500
356.000000,-0.010166,0.013172,21.198729,7.812500
357.000000,-0.008183,0.013141,21.254271,7.812500
358.000000,-0.012379,0.013104,21.291361,7.812500
359.000000,-0.011921,0.013074,21.333431,7.812500
360.000000,-0.009022,0.013056,21.382736,7.812500
361.000000,-0.006123,0.013029,21.418644,7.812500
362.000000,-0.002918,0.012991,21.451544,7.812500
363.000000,-0.008793,0.012922,21.477318,7.812500
364.000000,-0.015049,0.012895,21.491682,7.812500
365.000000,-0.015202,0.012867,21.502829,7.812500
366.000000,-0.010014,0.012807,21.512154,7.812500
367.000000,-0.012379,0.012749,21.522579,7.812500
368.000000,-0.008564,0.012673,21.531538,7.812500
369.000000,-0.006657,0.012668,21.538754,7.812500
370.000000,-0.002995,0.012647,21.544409,7.812500
371.000000,-0.004749,0.012617,21.545923,7.812500
372.000000,-0.008564,0.012536,21.543932,7.812500
373.000000,-0.010014,0.012473,21.539709,7.812500
374.000000,-0.009861,0.012408,21.536894,7.812500
375.000000,-0.008640,0.012361,21.532244,7.812500
376.000000,-0.011997,0.012331,21.529140,7.812500
377.000000,-0.009632,0.012310,21.524204,7.812500
378.000000,-0.011692,0.012277,21.519119,7.812500
379.000000,-0.011082,0.012241,21.513491,7.812500
380.000000,-0.010090,0.012215,21.505442,7.812500
381.000000,-0.009632,0.012187,21.496710,7.812500
382.000000,-0.010319,0.012186,21.489435,7.812500
383.000000,-0.010319,0.012166,21.482822,7.812500
384.000000,-0.011311,0.012143,21.476027,7.812500
385.000000,-0.011463,0.012128,21.468124,7.812500
386.000000,-0.015049,0.012146,21.459509,7.812500
387.000000,-0.015660,0.012167,21.447290,7.812500
388.000000,-0.014439,0.012189,21.437990,7.812500
389.000000,-0.009098,0.012170,21.429049,7.812500
390.000000,-0.011845,0.012187,21.421329,7.812500
391.000000,-0.015965,0.012267,21.416103,7.812500
392.000000,-0.014591,0.012323,21.433157,7.812500
393.000000,-0.014286,0.012354,21.447056,7.812500
394.000000,-0.014439,0.012401,21.458933,7.812500
395.000000,-0.012913,0.012437,21.476982,7.812500
396.000000,-0.011387,0.012481,21.496407,7.812500
397.000000,-0.009937,0.012506,21.511425,7.812500
398.000000,-0.013600,0.012537,21.528496,7.812500
399.000000,-0.013828,0.012543,21.537266,7.812500
400.000000,-0.014134,0.012500,21.540110,7.812500
401.000000,-0.013066,0.012496,21.541775,7.812500
402.000000,-0.012684,0.012546,21.556372,7.812500
403.000000,-0.012608,0.012602,21.570234,7.812500
404.000000,-0.009937,0.012577,21.577785,7.812500
405.000000,-0.010395,0.012547,21.586617,7.812500
406.000000,-0.013676,0.012501,21.591444,7.812500
407.000000,-0.015660,0.012467,21.591890,7.812500
408.000000,-0.010319,0.012375,21.593405,7.812500
409.000000,-0.008335,0.012316,21.593788,7.812500
410.000000,-0.011006,0.012265,21.601604,7.812500
411.000000,-0.010090,0.012183,21.604580,7.812500
412.000000,-0.013066,0.012084,21.598721,7.812500
413.000000,-0.010700,0.011926,21.590725,7.812500
414.000000,-0.011921,0.011835,21.590311,7.812500
415.000000,-0.011006,0.011782,21.590914,7.812500
416.000000,-0.011006,0.011754,21.600971,7.812500
417.000000,-0.009632,0.011687,21.608824,7.812500
418.000000,-0.009785,0.011522,21.612444,7.812500
419.000000,-0.013828,0.011392,21.613932,7.812500
420.000000,-0.012074,0.011300,21.616489,7.812500
421.000000,-0.012837,0.011235,21.615841,7.812500
422.000000,-0.009785,0.011182,21.634787,7.812500
423.000000,-0.010853,0.011173,21.662437,7.812500
424.000000,-0.008412,0.011150,21.675833,7.812500
425.000000,-0.012837,0.011131,21.684181,7.812500
426.000000,-0.011540,0.011049,21.703205,7.812500
427.000000,-0.011540,0.011011,21.721769,7.812500
428.000000,-0.011387,0.011024,21.744162,7.812500
429.000000,-0.006046,0.011007,21.776398,7.812500
430.000000,-0.010243,0.011007,21.818100,7.812500
431.000000,-0.009556,0.010997,21.854519,7.812500
432.000000,-0.010472,0.011002,21.872393,7.812500
433.000000,-0.013294,0.011045,21.899786,7.812500
434.000000,-0.011158,0.011064,21.937958,7.812500
435.000000,-0.008259,0.011048,21.982685,7.812500
436.000000,-0.007343,0.011047,22.019836,7.812500
437.000000,-0.005131,0.011034,22.059278,7.812500
438.000000,-0.009098,0.011010,22.081961,7.812500
439.000000,-0.013218,0.011049,22.112432,7.812500
440.000000,-0.010395,0.011062,22.155304,7.812500
441.000000,-0.008717,0.011072,22.215302,7.812500
442.000000,-0.007954,0.011062,22.262089,7.812500
443.000000,-0.010090,0.011070,22.305973,3.906250
444.000000,-0.011082,0.011080,22.342928,3.906250
445.000000,-0.010319,0.011092,22.381134,3.906250
446.000000,-0.009937,0.011089,22.417103,3.906250
447.000000,-0.011845,0.011087,22.464384,3.906250
448.000000,-0.008793,0.011079,22.503868,3.906250
449.000000,-0.010319,0.011113,22.556318,3.906250
450.000000,-0.009251,0.011120,22.613359,3.906250
451.000000,-0.009556,0.011116,22.676346,3.906250
452.000000,-0.012684,0.011135,22.725716,3.906250
453.000000,-0.014286,0.011151,22.767000,3.906250
454.000000,-0.012303,0.011131,22.823378,3.906250
455.000000,-0.013294,0.011157,22.872890,3.906250
456.000000,-0.012684,0.011183,22.929253,3.906250
457.000000,-0.009480,0.011193,22.980703,3.906250
458.000000,-0.012379,0.011193,23.026094,3.906250
459.000000,-0.014134,0.011219,23.085245,3.906250
460.000000,-0.011082,0.011237,23.145609,3.906250
461.000000,-0.009098,0.011257,23.201563,3.906250
462.000000,-0.005665,0.011268,23.268986,3.906250
463.000000,-0.012379,0.011302,23.342796,3.906250
464.000000,-0.018101,0.011346,23.412588,3.906250
465.000000,-0.012684,0.011315,23.475355,3.906250
466.000000,-0.015126,0.011372,23.530478,3.906250
467.000000,-0.012913,0.011378,23.582581,3.906250
468.000000,-0.011769,0.011406,23.649076,3.906250
469.000000,-0.005436,0.011400,23.730429,3.906250
470.000000,-0.004902,0.011407,23.806625,3.906250
471.000000,-0.008946,0.011432,23.866562,3.906250
472.000000,-0.011845,0.011461,23.921597,7.812500
473.000000,-0.011692,0.011477,23.954903,7.812500
474.000000,-0.011463,0.011492,24.001364,7.812500
475.000000,-0.011692,0.011519,24.047514,7.812500
476.000000,-0.009251,0.011493,24.086050,7.812500
477.000000,-0.009327,0.011491,24.120644,7.812500
478.000000,-0.009937,0.011474,24.156296,7.812500
479.000000,-0.009709,0.011462,24.191298,7.812500
480.000000,-0.008717,0.011451,24.219095,7.812500
481.000000,-0.007801,0.011437,24.247913,7.812500
482.000000,-0.007725,0.011416,24.271252,7.812500
483.000000,-0.008030,0.011398,24.292059,7.812500
484.000000,-0.008106,0.011370,24.311930,7.812500
485.000000,-0.009937,0.011356,24.328363,7.812500
486.000000,-0.014286,0.011346,24.323658,7.812500
487.000000,-0.013523,0.011319,24.326084,7.812500
488.000000,-0.010014,0.011271,24.337700,7.812500
489.000000,-0.008564,0.011267,24.336533,7.812500
490.000000,-0.005741,0.011219,24.333447,7.812500
491.000000,-0.009022,0.011141,24.322939,7.812500
492.000000,-0.010319,0.011093,24.299688,7.812500
493.000000,-0.011463,0.011061,24.273176,7.812500
494.000000,-0.012760,0.011040,24.245157,7.812500
495.000000,-0.013523,0.011047,24.220472,7.812500
496.000000,-0.009327,0.011028,24.196119,7.812500
497.000000,-0.010014,0.011029,24.171371,7.812500
498.000000,-0.009785,0.010988,24.146235,7.812500
499.000000,-0.012226,0.010969,24.116991,7.812500
500.000000,-0.012875,0.010954,24.084665,7.812500
501.000000,-0.010510,0.010926,24.050282,7.812500
502.000000,-0.008831,0.010888,24.018909,7.812500
503.000000,-0.008755,0.010850,23.986757,7.812500
504.000000,-0.008526,0.010838,23.958569,7.812500
505.000000,-0.010204,0.010836,23.928499,7.812500
506.000000,-0.012264,0.010819,23.899406,7.812500
507.000000,-0.014324,0.010801,23.870354,7.812500
508.000000,-0.011501,0.010813,23.840303,7.812500
509.000000,-0.009594,0.010823,23.810804,7.812500
510.000000,-0.007534,0.010794,23.784988,7.812500
511.000000,-0.009060,0.010784,23.760603,7.812500
512.000000,-0.007229,0.010729,23.736681,7.812500
513.000000,-0.008450,0.010709,23.711792,7.812500
514.000000,-0.008373,0.010676,23.687393,7.812500
515.000000,-0.011120,0.010677,23.660654,7.812500
516.000000,-0.009823,0.010665,23.638535,7.812500
517.000000,-0.009899,0.010668,23.618246,7.812500
518.000000,-0.010204,0.010672,23.600523,7.812500
519.000000,-0.009823,0.010627,23.586155,7.812500
520.000000,-0.009823,0.010604,23.597494,7.812500
521.000000,-0.009976,0.010573,23.605803,7.812500
522.000000,-0.006237,0.010546,23.613543,7.812500
523.000000,-0.008907,0.010528,23.628355,7.812500
524.000000,-0.011349,0.010555,23.645296,7.812500
525.000000,-0.009518,0.010520,23.658266,7.812500
526.000000,-0.010204,0.010506,23.674393,7.812500
527.000000,-0.011807,0.010509,23.683405,7.812500
528.000000,-0.008221,0.010480,23.687057,7.812500
529.000000,-0.005550,0.010477,23.690298,7.812500
530.000000,-0.006390,0.010446,23.708729,7.812500
531.000000,-0.011044,0.010461,23.727034,7.812500
532.000000,-0.012799,0.010487,23.738976,7.812500
533.000000,-0.012036,0.010472,23.752550,7.812500
534.000000,-0.010281,0.010463,23.762594,7.812500
535.000000,-0.009289,0.010471,23.768780,7.812500
536.000000,-0.007992,0.010476,23.778025,7.812500
537.000000,-0.006695,0.010485,23.786934,7.812500
538.000000,-0.007763,0.010474,23.804571,7.812500
539.000000,-0.010128,0.010440,23.817253,7.812500
540.000000,-0.008831,0.010425,23.820992,7.812500
541.000000,-0.009670,0.010434,23.823032,7.812500
542.000000,-0.010052,0.010452,23.834337,7.812500
543.000000,-0.010739,0.010458,23.847471,7.812500
544.000000,-0.010128,0.010449,23.871601,7.812500
545.000000,-0.011501,0.010461,23.893988,7.812500
546.000000,-0.012112,0.010484,23.912271,7.812500
547.000000,-0.011578,0.010481,23.928808,7.812500
548.000000,-0.010815,0.010500,23.947063,7.812500
549.000000,-0.006161,0.010467,23.962242,7.812500
550.000000,-0.009899,0.010473,23.999468,7.812500
551.000000,-0.011120,0.010488,24.046713,7.812500
552.000000,-0.014019,0.010505,24.078691,7.812500
553.000000,-0.014172,0.010504,24.105516,7.812500
554.000000,-0.011959,0.010500,24.144413,7.812500
555.000000,-0.012799,0.010494,24.183004,7.812500
556.000000,-0.012188,0.010488,24.225965,7.812500
557.000000,-0.011654,0.010510,24.280050,7.812500
558.000000,-0.014858,0.010542,24.344646,7.812500
559.000000,-0.015927,0.010567,24.403399,7.812500
560.000000,-0.013256,0.010592,24.441235,7.812500
561.000000,-0.010433,0.010605,24.489273,7.812500
562.000000,-0.008145,0.010621,24.549395,7.812500
563.000000,-0.009823,0.010594,24.616671,7.812500
564.000000,-0.012570,0.010514,24.675606,7.812500
565.000000,-0.011349,0.010498,24.736383,7.812500
566.000000,-0.012951,0.010469,24.777088,7.812500
567.000000,-0.014935,0.010496,24.825172,7.812500
568.000000,-0.014630,0.010532,24.887564,7.812500
569.000000,-0.007153,0.010542,24.968761,7.812500
570.000000,-0.008221,0.010563,25.035305,7.812500
571.000000,-0.004711,0.010536,25.097488,7.812500
572.000000,-0.008907,0.010507,25.150614,7.812500
573.000000,-0.010128,0.010490,25.203773,7.812500
574.000000,-0.011120,0.010487,25.253239,7.812500
575.000000,-0.008679,0.010457,25.314047,3.906250
576.000000,-0.007992,0.010447,25.365185,3.906250
577.000000,-0.006924,0.010428,25.430084,3.906250
578.000000,-0.008221,0.010413,25.498154,3.906250
579.000000,-0.009594,0.010412,25.571234,3.906250
580.000000,-0.010967,0.010433,25.627466,3.906250
581.000000,-0.008679,0.010440,25.673157,3.906250
582.000000,-0.008450,0.010446,25.733994,3.906250
583.000000,-0.007534,0.010442,25.785284,3.906250
584.000000,-0.009060,0.010450,25.842512,3.906250
585.000000,-0.009060,0.010442,25.892509,3.906250
586.000000,-0.010662,0.010399,25.934492,3.906250
587.000000,-0.012417,0.010385,25.990665,3.906250
588.000000,-0.009365,0.010379,26.046877,3.906250
589.000000,-0.007382,0.010370,26.096075,3.906250
590.000000,-0.010281,0.010405,26.155987,3.906250
591.000000,-0.009747,0.010411,26.221666,3.906250
592.000000,-0.013409,0.010446,26.282284,3.906250
593.000000,-0.014324,0.010482,26.333954,3.906250
594.000000,-0.011730,0.010470,26.375750,3.906250
595.000000,-0.008450,0.010416,26.413122,3.906250
596.000000,-0.007076,0.010399,26.464935,7.812500
597.000000,-0.009136,0.010391,26.531893,7.812500
598.000000,-0.011196,0.010405,26.592243,7.812500
599.000000,-0.015621,0.010450,26.633509,7.812500
600.000000,-0.013104,0.010453,26.668880,7.812500
601.000000,-0.009899,0.010447,26.679371,7.812500
602.000000,-0.008602,0.010445,26.703316,7.812500
603.000000,-0.010052,0.010457,26.726246,7.812500
604.000000,-0.007839,0.010451,26.740225,7.812500
605.000000,-0.010052,0.010450,26.749395,7.812500
606.000000,-0.011578,0.010442,26.759295,7.812500
607.000000,-0.013333,0.010429,26.767975,7.812500
608.000000,-0.011501,0.010429,26.768579,7.812500
609.000000,-0.006008,0.010402,26.770227,7.812500
610.000000,-0.008984,0.010414,26.765934,7.812500
611.000000,-0.009670,0.010419,26.758846,7.812500
612.000000,-0.008373,0.010428,26.750820,7.812500
613.000000,-0.007916,0.010423,26.738703,7.812500
614.000000,-0.007458,0.010416,26.703815,7.812500
615.000000,-0.008679,0.010393,26.676882,7.812500
616.000000,-0.008297,0.010380,26.660553,7.812500
617.000000,-0.008984,0.010372,26.631449,7.812500
618.000000,-0.009747,0.010367,26.600431,7.812500
619.000000,-0.009518,0.010364,26.561464,7.812500
620.000000,-0.006847,0.010340,26.509274,7.812500
621.000000,-0.006542,0.010313,26.453974,7.812500
622.000000,-0.005703,0.010310,26.398064,7.812500
623.000000,-0.008831,0.010309,26.346201,7.812500
624.000000,-0.007076,0.010271,26.295126,7.812500
625.000000,-0.009594,0.010272,26.243954,7.812500
626.000000,-0.009976,0.010269,26.192596,7.812500
627.000000,-0.010433,0.010254,26.138128,7.812500
628.000000,-0.008221,0.010254,26.082060,7.812500
629.000000,-0.005856,0.010256,26.024452,7.812500
630.000000,-0.009442,0.010280,25.970387,7.812500
631.000000,-0.010739,0.010276,25.916168,7.812500
632.000000,-0.010128,0.010247,25.866789,7.812500
633.000000,-0.009136,0.010217,25.815861,7.812500
634.000000,-0.010662,0.010221,25.766359,7.812500
635.000000,-0.010357,0.010231,25.717690,7.812500
636.000000,-0.008602,0.010236,25.669338,7.812500
637.000000,-0.009289,0.010256,25.622757,7.812500
638.000000,-0.010281,0.010278,25.580494,7.812500
639.000000,-0.011425,0.010292,25.540276,7.812500
640.000000,-0.011501,0.010318,25.501740,7.812500
641.000000,-0.011425,0.010336,25.462803,7.812500
642.000000,-0.010891,0.010344,25.425219,7.812500
643.000000,-0.008221,0.010321,25.385883,7.812500
644.000000,-0.008984,0.010311,25.352306,7.812500
645.000000,-0.006695,0.010268,25.321325,7.812500
646.000000,-0.010815,0.010254,25.293797,7.812500
647.000000,-0.012493,0.010265,25.270468,7.812500
648.000000,-0.009289,0.010250,25.275227,7.812500
649.000000,-0.008450,0.010266,25.277512,7.812500
650.000000,-0.010128,0.010268,25.280352,7.812500
651.000000,-0.009670,0.010253,25.291685,7.812500
652.000000,-0.010967,0.010216,25.305748,7.812500
653.000000,-0.009594,0.010163,25.316038,7.812500
654.000000,-0.010662,0.010148,25.330288,7.812500
655.000000,-0.009594,0.010113,25.337860,7.812500
656.000000,-0.009060,0.010080,25.340532,7.812500
657.000000,-0.009213,0.010055,25.343435,7.812500
658.000000,-0.011578,0.010011,25.363045,7.812500
659.000000,-0.013714,0.009979,25.383137,7.812500
660.000000,-0.009594,0.009937,25.397045,7.812500
661.000000,-0.007687,0.009912,25.413328,7.812500
662.000000,-0.006695,0.009901,25.426592,7.812500
663.000000,-0.007687,0.009882,25.436419,7.812500
664.000000,-0.012799,0.009885,25.450115,7.812500
665.000000,-0.015621,0.009943,25.464029,7.812500
666.000000,-0.009747,0.009906,25.487814,7.812500
667.000000,-0.009365,0.009838,25.506927,7.812500
668.000000,-0.009289,0.009773,25.517101,7.812500
669.000000,-0.007916,0.009778,25.526022,7.812500
670.000000,-0.008831,0.009784,25.545275,7.812500
671.000000,-0.005856,0.009790,25.566868,7.812500
672.000000,-0.010128,0.009802,25.600945,7.812500
673.000000,-0.008526,0.009787,25.633732,7.812500
674.000000,-0.011273,0.009788,25.662457,7.812500
675.000000,-0.009060,0.009792,25.689768,7.812500
676.000000,-0.008526,0.009796,25.719242,7.812500
677.000000,-0.006542,0.009794,25.745796,7.812500
678.000000,-0.010662,0.009817,25.796186,7.812500
679.000000,-0.012722,0.009853,25.857475,7.812500
680.000000,-0.011501,0.009859,25.902967,7.812500
681.000000,-0.008068,0.009854,25.943239,7.812500
682.000000,-0.009289,0.009861,25.996723,7.812500
683.000000,-0.007610,0.009862,26.049763,7.812500
684.000000,-0.010891,0.009880,26.107626,7.812500
685.000000,-0.010281,0.009892,26.177242,7.812500
686.000000,-0.013638,0.009929,26.258680,7.812500
687.000000,-0.009823,0.009899,26.333984,7.812500
688.000000,-0.013104,0.009942,26.386978,7.812500
689.000000,-0.010204,0.009967,26.450285,7.812500
690.000000,-0.011959,0.009985,26.526522,7.812500
691.000000,-0.011349,0.010002,26.610098,7.812500
692.000000,-0.009976,0.009962,26.684814,7.812500
693.000000,-0.013104,0.009945,26.761610,7.812500
694.000000,-0.012570,0.009956,26.816502,7.812500
695.000000,-0.011349,0.009984,26.878685,7.812500
696.000000,-0.009747,0.010007,26.955811,7.812500
697.000000,-0.010357,0.010019,27.052273,7.812500
698.000000,-0.009823,0.010004,27.132727,7.812500
699.000000,-0.011807,0.009952,27.208012,7.812500
700.000000,-0.012684,0.009946,27.272896,7.812500
701.000000,-0.010777,0.009956,27.337139,7.812500
702.000000,-0.010929,0.009978,27.396524,7.812500
703.000000,-0.007725,0.009958,27.467297,7.812500
704.000000,-0.009403,0.009971,27.526882,7.812500
705.000000,-0.009403,0.009965,27.600307,7.812500
706.000000,-0.009861,0.009946,27.676224,7.812500
707.000000,-0.011692,0.009926,27.756569,7.812500
708.000000,-0.012303,0.009935,27.817919,3.906250
709.000000,-0.006733,0.009940,27.867065,3.906250
710.000000,-0.007191,0.009925,27.931417,3.906250
711.000000,-0.009022,0.009919,27.984880,3.906250
712.000000,-0.011234,0.009947,28.043444,3.906250
713.000000,-0.009480,0.009961,28.093384,3.906250
714.000000,-0.007725,0.009963,28.133667,3.906250
715.000000,-0.010090,0.009976,28.188030,3.906250
716.000000,-0.007191,0.009968,28.241703,3.906250
717.000000,-0.006657,0.009950,28.287552,3.906250
718.000000,-0.009785,0.009950,28.343683,3.906250
719.000000,-0.011845,0.009975,28.405018,3.906250
720.000000,-0.009098,0.009993,28.459911,7.812500
721.000000,-0.009785,0.010019,28.504377,7.812500
722.000000,-0.008793,0.010042,28.537773,7.812500
723.000000,-0.008183,0.010036,28.565712,7.812500
724.000000,-0.004978,0.010024,28.608374,7.812500
725.000000,-0.008564,0.010014,28.666470,7.812500
726.000000,-0.010090,0.010015,28.716568,7.812500
727.000000,-0.012913,0.010044,28.746014,7.812500
728.000000,-0.009709,0.010057,28.769161,7.812500
729.000000,-0.007572,0.010069,28.765108,7.812500
730.000000,-0.009022,0.010065,28.775126,7.812500
731.000000,-0.010777,0.010066,28.783684,7.812500
732.000000,-0.009480,0.010059,28.782442,7.812500
733.000000,-0.009022,0.010058,28.775805,7.812500
734.000000,-0.008717,0.010039,28.769669,7.812500
735.000000,-0.010090,0.010037,28.762075,7.812500
736.000000,-0.009937,0.010049,28.746168,7.812500
737.000000,-0.009556,0.010052,28.731491,7.812500
738.000000,-0.011692,0.010067,28.710468,7.812500
739.000000,-0.011387,0.010066,28.686480,7.812500
740.000000,-0.008564,0.010037,28.661604,7.812500
741.000000,-0.009022,0.010013,28.632586,7.812500
742.000000,-0.011311,0.010017,28.579702,7.812500
743.000000,-0.008869,0.010023,28.535439,7.812500
744.000000,-0.009861,0.010031,28.502682,7.812500
745.000000,-0.007954,0.010040,28.456614,7.812500
746.000000,-0.008869,0.010021,28.408663,7.812500
747.000000,-0.010014,0.009993,28.352663,7.812500
748.000000,-0.008946,0.009990,28.283323,7.812500
749.000000,-0.005741,0.009971,28.211254,7.812500
750.000000,-0.007801,0.009950,28.139181,7.812500
751.000000,-0.008106,0.009936,28.071972,7.812500
752.000000,-0.008106,0.009908,28.005682,7.812500
753.000000,-0.011616,0.009930,27.939802,7.812500
754.000000,-0.007954,0.009905,27.873901,7.812500
755.000000,-0.007038,0.009883,27.805399,7.812500
756.000000,-0.005283,0.009856,27.735968,7.812500
757.000000,-0.006428,0.009834,27.665806,7.812500
758.000000,-0.008106,0.009799,27.599789,7.812500
759.000000,-0.010395,0.009758,27.534113,7.812500
760.000000,-0.007191,0.009737,27.473782,7.812500
761.000000,-0.005894,0.009725,27.412188,7.812500
762.000000,-0.003910,0.009710,27.352839,7.812500
763.000000,-0.007267,0.009706,27.295059,7.812500
764.000000,-0.013447,0.009715,27.238178,7.812500
765.000000,-0.010090,0.009642,27.183504,7.812500
766.000000,-0.009174,0.009636,27.133808,7.812500
767.000000,-0.010243,0.009645,27.086729,7.812500
768.000000,-0.011921,0.009674,27.042017,7.812500
769.000000,-0.006657,0.009664,26.997444,7.812500
770.000000,-0.005131,0.009638,26.954773,7.812500
771.000000,-0.009785,0.009669,26.910645,7.812500
772.000000,-0.009861,0.009667,26.873186,7.812500
773.000000,-0.009098,0.009672,26.838932,7.812500
774.000000,-0.011540,0.009675,26.808819,7.812500
775.000000,-0.012684,0.009716,26.783607,7.812500
776.000000,-0.013066,0.009766,26.788425,7.812500
777.000000,-0.011845,0.009816,26.791101,7.812500
778.000000,-0.010395,0.009813,26.794821,7.812500
779.000000,-0.011463,0.009797,26.807962,7.812500
780.000000,-0.011387,0.009796,26.824453,7.812500
781.000000,-0.008869,0.009803,26.837412,7.812500
782.000000,-0.010777,0.009818,26.855030,7.812500
783.000000,-0.010777,0.009848,26.866076,7.812500
784.000000,-0.013294,0.009877,26.872383,7.812500
785.000000,-0.014286,0.009927,26.879351,7.812500
786.000000,-0.012150,0.009908,26.904366,7.812500
787.000000,-0.011463,0.009925,26.930309,7.812500
788.000000,-0.010929,0.009899,26.950161,7.812500
789.000000,-0.008106,0.009879,26.972919,7.812500
790.000000,-0.011463,0.009873,26.992874,7.812500
791.000000,-0.011463,0.009875,27.009598,7.812500
792.000000,-0.012150,0.009899,27.030739,7.812500
793.000000,-0.012531,0.009892,27.052322,7.812500
794.000000,-0.011692,0.009881,27.084700,7.812500
795.000000,-0.009937,0.009866,27.112684,7.812500
796.000000,-0.011234,0.009882,27.131624,7.812500
797.000000,-0.007267,0.009854,27.149599,7.812500
798.000000,-0.009098,0.009847,27.178633,7.812500
799.000000,-0.010777,0.009835,27.210392,7.812500
800.000000,-0.011120,0.009816,27.255550,7.812500
801.000000,-0.009747,0.009805,27.299469,7.812500
802.000000,-0.008984,0.009786,27.339375,7.812500
803.000000,-0.007458,0.009784,27.378256,7.812500
804.000000,-0.009518,0.009785,27.419422,7.812500
805.000000,-0.011349,0.009805,27.457958,7.812500
806.000000,-0.011425,0.009822,27.521847,7.812500
807.000000,-0.010586,0.009810,27.597359,7.812500
808.000000,-0.010052,0.009784,27.656141,7.812500
809.000000,-0.004711,0.009772,27.709648,7.812500
810.000000,-0.006771,0.009769,27.777300,7.812500
811.000000,-0.006771,0.009751,27.844513,7.812500
812.000000,-0.009747,0.009735,27.916660,7.812500
813.000000,-0.011120,0.009752,28.000908,7.812500
814.000000,-0.012570,0.009803,28.097843,7.812500
815.000000,-0.010739,0.009809,28.188278,7.812500
816.000000,-0.008297,0.009818,28.255020,7.812500
817.000000,-0.006771,0.009819,28.332731,7.812500
818.000000,-0.006313,0.009791,28.423687,7.812500
819.000000,-0.008145,0.009753,28.522146,7.812500
820.000000,-0.009747,0.009759,28.610802,7.812500
821.000000,-0.009670,0.009758,28.701334,7.812500
822.000000,-0.010281,0.009772,28.768158,7.812500
823.000000,-0.008679,0.009777,28.842276,7.812500
824.000000,-0.008221,0.009798,28.931759,7.812500
825.000000,-0.008679,0.009799,29.041344,7.812500
826.000000,-0.009823,0.009797,29.133404,7.812500
827.000000,-0.007687,0.009742,29.219391,7.812500
828.000000,-0.008297,0.009729,29.293636,7.812500
829.000000,-0.007992,0.009732,29.366617,7.812500
830.000000,-0.010357,0.009745,29.433687,7.812500
831.000000,-0.008297,0.009721,29.511932,7.812500
832.000000,-0.009213,0.009718,29.577440,7.812500
833.000000,-0.010967,0.009738,29.657631,7.812500
834.000000,-0.010128,0.009752,29.739721,7.812500
835.000000,-0.009442,0.009746,29.825834,7.812500
836.000000,-0.006847,0.009719,29.890676,7.812500
837.000000,-0.007382,0.009700,29.941631,7.812500
838.000000,-0.008831,0.009670,30.008072,7.812500
839.000000,-0.010128,0.009656,30.062145,7.812500
840.000000,-0.010204,0.009671,30.120955,7.812500
841.000000,-0.009976,0.009681,30.169907,7.812500
842.000000,-0.011730,0.009686,30.207661,7.812500
843.000000,-0.009136,0.009688,30.259552,7.812500
844.000000,-0.011425,0.009705,30.309856,7.812500
845.000000,-0.008526,0.009710,30.351200,7.812500
846.000000,-0.009823,0.009720,30.402790,7.812500
847.000000,-0.007610,0.009698,30.459242,7.812500
848.000000,-0.009213,0.009700,30.508114,7.812500
849.000000,-0.008450,0.009720,30.545275,7.812500
850.000000,-0.007992,0.009722,30.570040,7.812500
851.000000,-0.010510,0.009745,30.588491,7.812500
852.000000,-0.010204,0.009764,30.622015,7.812500
853.000000,-0.008755,0.009734,30.671366,7.812500
854.000000,-0.012341,0.009780,30.711748,7.812500
855.000000,-0.011654,0.009824,30.729866,7.812500
856.000000,-0.011578,0.009878,30.740967,7.812500
857.000000,-0.007229,0.009883,30.722939,7.812500
858.000000,-0.010662,0.009908,30.719501,7.812500
859.000000,-0.012188,0.009928,30.714348,7.812500
860.000000,-0.009136,0.009944,30.698591,7.812500
861.000000,-0.007534,0.009955,30.676949,7.812500
862.000000,-0.006161,0.009966,30.655704,7.812500
863.000000,-0.007458,0.009968,30.632893,7.812500
864.000000,-0.013714,0.009972,30.601271,7.812500
865.000000,-0.009365,0.009964,30.570951,7.812500
866.000000,-0.012341,0.009999,30.533953,7.812500
867.000000,-0.012951,0.010030,30.493830,7.812500
868.000000,-0.015774,0.010083,30.452877,7.812500
869.000000,-0.010891,0.010120,30.407749,7.812500
870.000000,-0.004101,0.010115,30.337664,7.812500
871.000000,-0.003796,0.010075,30.276775,7.812500
872.000000,-0.007458,0.010054,30.228285,7.812500
873.000000,-0.006542,0.010034,30.165949,7.812500
874.000000,-0.008679,0.010005,30.101837,7.812500
875.000000,-0.009289,0.009968,30.029490,7.812500
876.000000,-0.011196,0.009945,29.943214,7.812500
877.000000,-0.008755,0.009913,29.854500,7.812500
878.000000,-0.009594,0.009905,29.766432,7.812500
879.000000,-0.010357,0.009893,29.683825,7.812500
880.000000,-0.008679,0.009865,29.602354,7.812500
881.000000,-0.006847,0.009849,29.521698,7.812500
882.000000,-0.007076,0.009816,29.441339,7.812500
883.000000,-0.005474,0.009772,29.358599,7.812500
884.000000,-0.007687,0.009711,29.275137,7.812500
885.000000,-0.005932,0.009624,29.191341,7.812500
886.000000,-0.009594,0.009595,29.112171,7.812500
887.000000,-0.012417,0.009607,29.033840,7.812500
888.000000,-0.012951,0.009632,28.961468,7.812500
889.000000,-0.008831,0.009638,28.888397,7.812500
890.000000,-0.009747,0.009619,28.818050,7.812500
891.000000,-0.011044,0.009615,28.749775,7.812500
892.000000,-0.009442,0.009584,28.682676,7.812500
893.000000,-0.011120,0.009567,28.618259,7.812500
894.000000,-0.010510,0.009553,28.559429,7.812500
895.000000,-0.011349,0.009569,28.503683,7.812500
896.000000,-0.010357,0.009559,28.450760,7.812500
897.000000,-0.012493,0.009613,28.398472,7.812500
898.000000,-0.011959,0.009644,28.348577,7.812500
899.000000,-0.014706,0.009696,28.297506,7.812500
900.000000,-0.013523,0.009726,28.253777,7.812500
901.000000,-0.009480,0.009723,28.213749,7.812500
902.000000,-0.012074,0.009757,28.178478,7.812500
903.000000,-0.010166,0.009781,28.148718,7.812500
904.000000,-0.010700,0.009794,28.150650,7.812500
905.000000,-0.011006,0.009790,28.150661,7.812500
906.000000,-0.013218,0.009812,28.152145,7.812500
907.000000,-0.012303,0.009832,28.163626,7.812500
908.000000,-0.010548,0.009837,28.179003,7.812500
909.000000,-0.009098,0.009868,28.191145,7.812500
910.000000,-0.007954,0.009877,28.208616,7.812500
911.000000,-0.009785,0.009902,28.219835,7.812500
912.000000,-0.012226,0.009930,28.226290,7.812500
913.000000,-0.008335,0.009902,28.233751,7.812500
914.000000,-0.009174,0.009865,28.260370,7.812500
915.000000,-0.007954,0.009839,28.288370,7.812500
916.000000,-0.008335,0.009839,28.310619,7.812500
917.000000,-0.005818,0.009833,28.336281,7.812500
918.000000,-0.007725,0.009843,28.359554,7.812500
919.000000,-0.009327,0.009853,28.379660,7.812500
920.000000,-0.010548,0.009862,28.404570,7.812500
921.000000,-0.007649,0.009844,28.430603,7.812500
922.000000,-0.008946,0.009831,28.468386,7.812500
923.000000,-0.006886,0.009817,28.502134,7.812500
924.000000,-0.007267,0.009809,28.526558,7.812500
925.000000,-0.007343,0.009798,28.550369,7.812500
926.000000,-0.008183,0.009783,28.585983,7.812500
927.000000,-0.011921,0.009825,28.624786,7.812500
928.000000,-0.011234,0.009855,28.678131,7.812500
929.000000,-0.008335,0.009857,28.730721,7.812500
930.000000,-0.008183,0.009837,28.779242,7.812500
931.000000,-0.008488,0.009839,28.827082,7.812500
932.000000,-0.011769,0.009866,28.877628,7.812500
933.000000,-0.012226,0.009881,28.925732,7.812500
934.000000,-0.012608,0.009909,29.000681,7.812500
935.000000,-0.009556,0.009910,29.088011,7.812500
936.000000,-0.009403,0.009931,29.158247,7.812500
937.000000,-0.007649,0.009933,29.223320,7.812500
938.000000,-0.009174,0.009936,29.303543,7.812500
939.000000,-0.012989,0.009969,29.383526,7.812500
940.000000,-0.011921,0.009988,29.468843,7.812500
941.000000,-0.010624,0.009995,29.566952,7.812500
942.000000,-0.010090,0.009977,29.678696,7.812500
943.000000,-0.010014,0.009986,29.784094,7.812500
944.000000,-0.008869,0.009960,29.864805,7.812500
945.000000,-0.008717,0.009961,29.957104,7.812500
946.000000,-0.007954,0.009945,30.063408,7.812500
947.000000,-0.009937,0.009965,30.177450,7.812500
948.000000,-0.010853,0.009982,30.281502,7.812500
949.000000,-0.005818,0.009963,30.387634,7.812500
950.000000,-0.005818,0.009948,30.469168,7.812500
951.000000,-0.008564,0.009929,30.558138,7.812500
952.000000,-0.008259,0.009911,30.663382,7.812500
953.000000,-0.011234,0.009936,30.789516,7.812500
954.000000,-0.009327,0.009903,30.897263,7.812500
955.000000,-0.010014,0.009885,30.998411,7.812500
956.000000,-0.008640,0.009855,31.087004,7.812500
957.000000,-0.007801,0.009859,31.174231,7.812500
958.000000,-0.007649,0.009831,31.254860,7.812500
959.000000,-0.010700,0.009814,31.346920,7.812500
960.000000,-0.008488,0.009808,31.425299,7.812500
961.000000,-0.005894,0.009797,31.518812,7.812500
962.000000,-0.005360,0.009792,31.613930,7.812500
963.000000,-0.006657,0.009786,31.712843,7.812500
964.000000,-0.012074,0.009765,31.788879,7.812500
965.000000,-0.015354,0.009840,31.849850,7.812500
966.000000,-0.011234,0.009827,31.926567,7.812500
967.000000,-0.010472,0.009797,31.990074,7.812500
968.000000,-0.011311,0.009735,32.057831,7.812500
969.000000,-0.005131,0.009688,32.114517,7.812500
970.000000,-0.006275,0.009700,32.158730,7.812500
971.000000,-0.001316,0.009693,32.217113,7.812500
972.000000,-0.007420,0.009693,32.273628,7.812500
973.000000,-0.011540,0.009739,32.320774,7.812500
974.000000,-0.011540,0.009769,32.377617,7.812500
975.000000,-0.010319,0.009779,32.438789,7.812500
976.000000,-0.010777,0.009775,32.491287,7.812500
977.000000,-0.009632,0.009783,32.530636,7.812500
978.000000,-0.008412,0.009772,32.556419,7.812500
979.000000,-0.008335,0.009753,32.574398,7.812500
980.000000,-0.008106,0.009748,32.608311,7.812500
981.000000,-0.006504,0.009745,32.658627,7.812500
982.000000,-0.007954,0.009752,32.698627,7.812500
983.000000,-0.009709,0.009785,32.714424,7.812500
984.000000,-0.009098,0.009797,32.722523,7.812500
985.000000,-0.008106,0.009813,32.699368,7.812500
986.000000,-0.010243,0.009819,32.691048,7.812500
987.000000,-0.012913,0.009826,32.680492,7.812500
988.000000,-0.009937,0.009790,32.658516,7.812500
989.000000,-0.008717,0.009789,32.629608,7.812500
990.000000,-0.007877,0.009773,32.600723,7.812500
991.000000,-0.010090,0.009762,32.569733,7.812500
992.000000,-0.011769,0.009787,32.529381,7.812500
993.000000,-0.009480,0.009770,32.490215,7.812500
994.000000,-0.009403,0.009759,32.443810,7.812500
995.000000,-0.010548,0.009750,32.393917,7.812500
996.000000,-0.008259,0.009730,32.342850,7.812500
997.000000,-0.008793,0.009689,32.287163,7.812500
998.000000,-0.011158,0.009680,32.205093,7.812500
999.000000,-0.010624,0.009626,32.132641,7.812500
1000.000000,-0.010777,0.009591,32.073292,7.812500
1001.000000,-0.009480,0.009591,31.999178,7.812500
1002.000000,-0.009098,0.009559,31.923002,7.812500
1003.000000,-0.008030,0.009538,31.838280,7.812500
1004.000000,-0.008640,0.009517,31.739008,7.812500
1005.000000,-0.010548,0.009512,31.637238,7.812500
1006.000000,-0.013371,0.009514,31.536224,7.812500
1007.000000,-0.009709,0.009484,31.441183,7.812500
1008.000000,-0.008793,0.009466,31.347382,7.812500
1009.000000,-0.004520,0.009433,31.254601,7.812500
1010.000000,-0.008869,0.009441,31.162193,7.812500
1011.000000,-0.011006,0.009455,31.067297,7.812500
1012.000000,-0.012150,0.009454,30.971970,7.812500
1013.000000,-0.010319,0.009473,30.876860,7.812500
1014.000000,-0.008030,0.009463,30.786793,7.812500
1015.000000,-0.008335,0.009466,30.697590,7.812500
1016.000000,-0.010166,0.009484,30.614809,7.812500
1017.000000,-0.009098,0.009510,30.531143,7.812500
1018.000000,-0.007725,0.009510,30.451033,7.812500
1019.000000,-0.012379,0.009545,30.373529,7.812500
1020.000000,-0.010929,0.009549,30.297619,7.812500
1021.000000,-0.008030,0.009552,30.224630,7.812500
1022.000000,-0.009632,0.009559,30.157663,7.812500
1023.000000,-0.009403,0.009580,30.094173,7.812500
1024.000000,-0.009327,0.009598,30.034094,7.812500
1025.000000,-0.010319,0.009625,29.974985,7.812500
1026.000000,-0.010700,0.009650,29.918692,7.812500
1027.000000,-0.010166,0.009630,29.861469,7.812500
1028.000000,-0.011082,0.009628,29.812258,7.812500
1029.000000,-0.008335,0.009628,29.767254,7.812500
1030.000000,-0.009327,0.009639,29.727587,7.812500
1031.000000,-0.010548,0.009659,29.694035,7.812500
1032.000000,-0.009785,0.009637,29.693909,7.812500
1033.000000,-0.009937,0.009610,29.692184,7.812500
1034.000000,-0.010014,0.009580,29.692320,7.812500
1035.000000,-0.010472,0.009589,29.703297,7.812500
1036.000000,-0.010395,0.009600,29.718706,7.812500
1037.000000,-0.007725,0.009600,29.731142,7.812500
1038.000000,-0.008564,0.009595,29.749556,7.812500
1039.000000,-0.009403,0.009553,29.761826,7.812500
1040.000000,-0.012455,0.009559,29.769508,7.812500
1041.000000,-0.009174,0.009544,29.778625,7.812500
1042.000000,-0.008793,0.009532,29.808168,7.812500
1043.000000,-0.009861,0.009530,29.839558,7.812500
1044.000000,-0.009556,0.009537,29.865330,7.812500
1045.000000,-0.008640,0.009536,29.895058,7.812500
1046.000000,-0.007038,0.009529,29.922682,7.812500
1047.000000,-0.010472,0.009534,29.947397,7.812500
1048.000000,-0.011692,0.009544,29.977545,7.812500
1049.000000,-0.009480,0.009574,30.009212,7.812500
1050.000000,-0.008869,0.009597,30.053568,7.812500
1051.000000,-0.010090,0.009612,30.094110,7.812500
1052.000000,-0.009785,0.009626,30.125269,7.812500
1053.000000,-0.009327,0.009606,30.156191,7.812500
1054.000000,-0.010319,0.009616,30.199720,7.812500
1055.000000,-0.010395,0.009620,30.247025,7.812500
1056.000000,-0.011082,0.009645,30.309912,7.812500
1057.000000,-0.009861,0.009664,30.372278,7.812500
1058.000000,-0.009251,0.009678,30.430708,7.812500
1059.000000,-0.010548,0.009676,30.488832,7.812500
1060.000000,-0.008793,0.009679,30.550018,7.812500
1061.000000,-0.010014,0.009713,30.608995,7.812500
1062.000000,-0.006962,0.009723,30.696346,7.812500
1063.000000,-0.005512,0.009716,30.796883,7.812500
1064.000000,-0.011616,0.009710,30.879728,7.812500
1065.000000,-0.008259,0.009623,30.957375,7.812500
1066.000000,-0.008488,0.009595,31.051077,7.812500
1067.000000,-0.009709,0.009587,31.144665,7.812500
1068.000000,-0.011616,0.009591,31.243958,7.812500
1069.000000,-0.009174,0.009621,31.356779,7.812500
1070.000000,-0.003452,0.009607,31.484003,7.812500
1071.000000,-0.003910,0.009614,31.604578,7.812500
1072.000000,-0.008183,0.009620,31.699284,7.812500
1073.000000,-0.005512,0.009566,31.806086,7.812500
1074.000000,-0.007038,0.009523,31.927492,7.812500
1075.000000,-0.008335,0.009503,32.056870,7.812500
1076.000000,-0.010929,0.009505,32.175606,7.812500
1077.000000,-0.006809,0.009480,32.296497,7.812500
1078.000000,-0.006046,0.009462,32.391502,7.812500
1079.000000,-0.011234,0.009492,32.493874,7.812500
1080.000000,-0.009251,0.009503,32.612984,7.812500
1081.000000,-0.008488,0.009518,32.753704,7.812500
1082.000000,-0.008717,0.009525,32.874722,7.812500
1083.000000,-0.009632,0.009524,32.988369,7.812500
1084.000000,-0.008412,0.009518,33.088329,7.812500
1085.000000,-0.010624,0.009543,33.186394,7.812500
1086.000000,-0.009861,0.009539,33.276955,7.812500
1087.000000,-0.011921,0.009526,33.378925,7.812500
1088.000000,-0.011616,0.009545,33.465874,7.812500
1089.000000,-0.011311,0.009572,33.568108,7.812500
1090.000000,-0.009861,0.009590,33.671371,7.812500
1091.000000,-0.011158,0.009602,33.777866,7.812500
1092.000000,-0.014210,0.009635,33.859608,7.812500
1093.000000,-0.013218,0.009679,33.924656,7.812500
1094.000000,-0.009785,0.009683,34.005608,7.812500
1095.000000,-0.010395,0.009681,34.071686,7.812500
1096.000000,-0.009251,0.009690,34.141468,7.812500
1097.000000,-0.008946,0.009692,34.198929,7.812500
1098.000000,-0.010853,0.009688,34.242508,7.812500
1099.000000,-0.011387,0.009697,34.300049,7.812500
1100.000000,-0.011883,0.009710,34.354301,7.812500
1101.000000,-0.010739,0.009723,34.397903,7.812500
1102.000000,-0.007763,0.009711,34.451443,7.812500
1103.000000,-0.008831,0.009718,34.508839,7.812500
1104.000000,-0.006237,0.009700,34.556511,7.812500
1105.000000,-0.007000,0.009668,34.589664,7.812500
1106.000000,-0.008373,0.009611,34.607807,7.812500
1107.000000,-0.010128,0.009615,34.616718,7.812500
1108.000000,-0.010891,0.009637,34.641930,7.812500
1109.000000,-0.008145,0.009661,34.683491,7.812500
1110.000000,-0.006771,0.009644,34.714161,7.812500
1111.000000,-0.005703,0.009598,34.718445,7.812500
1112.000000,-0.007534,0.009550,34.714676,7.812500
1113.000000,-0.007763,0.009526,34.677452,7.812500
1114.000000,-0.009060,0.009535,34.655151,7.812500
1115.000000,-0.008221,0.009534,34.630192,7.812500
1116.000000,-0.009060,0.009523,34.592773,7.812500
1117.000000,-0.008297,0.009516,34.547909,7.812500
1118.000000,-0.008526,0.009523,34.503265,7.812500
1119.000000,-0.009747,0.009492,34.456093,7.812500
1120.000000,-0.008373,0.009466,34.398716,7.812500
1121.000000,-0.009136,0.009476,34.342178,7.812500
1122.000000,-0.009442,0.009474,34.278038,7.812500
1123.000000,-0.006542,0.009450,34.210217,7.812500
1124.000000,-0.008602,0.009443,34.140995,7.812500
1125.000000,-0.010586,0.009446,34.066921,7.812500
1126.000000,-0.010815,0.009447,33.965252,7.812500
1127.000000,-0.010433,0.009450,33.873718,7.812500
1128.000000,-0.009136,0.009429,33.796253,7.812500
1129.000000,-0.005627,0.009409,33.703300,7.812500
1130.000000,-0.009670,0.009413,33.608387,7.812500
1131.000000,-0.009136,0.009398,33.504673,7.812500
1132.000000,-0.010357,0.009404,33.385830,7.812500
1133.000000,-0.008602,0.009391,33.264793,7.812500
1134.000000,-0.010281,0.009394,33.145031,7.812500
1135.000000,-0.009670,0.009385,33.031677,7.812500
1136.000000,-0.010662,0.009388,32.919865,7.812500
1137.000000,-0.006237,0.009377,32.809433,7.812500
1138.000000,-0.007610,0.009369,32.699745,7.812500
1139.000000,-0.008679,0.009362,32.587818,7.812500
1140.000000,-0.011959,0.009356,32.475819,7.812500
1141.000000,-0.011425,0.009380,32.364429,7.812500
1142.000000,-0.010357,0.009396,32.258686,7.812500
1143.000000,-0.009747,0.009395,32.154224,7.812500
1144.000000,-0.008068,0.009381,32.056866,7.812500
1145.000000,-0.009747,0.009392,31.958981,7.812500
1146.000000,-0.012188,0.009444,31.865215,7.812500
1147.000000,-0.012570,0.009470,31.774590,7.812500
1148.000000,-0.008450,0.009435,31.686010,7.812500
1149.000000,-0.008221,0.009424,31.600830,7.812500
1150.000000,-0.009518,0.009430,31.522396,7.812500
1151.000000,-0.011349,0.009444,31.448063,7.812500
1152.000000,-0.011425,0.009463,31.377689,7.812500
1153.000000,-0.012570,0.009500,31.308697,7.812500
1154.000000,-0.012417,0.009525,31.243034,7.812500
1155.000000,-0.011349,0.009536,31.176834,7.812500
1156.000000,-0.011730,0.009544,31.119392,7.812500
1157.000000,-0.011425,0.009561,31.066746,7.812500
1158.000000,-0.010433,0.009573,31.020031,7.812500
1159.000000,-0.011120,0.009580,30.980068,7.812500
1160.000000,-0.009976,0.009591,30.975149,7.812500
1161.000000,-0.008221,0.009574,30.968971,7.812500
1162.000000,-0.007000,0.009575,30.965117,7.812500
1163.000000,-0.007610,0.009589,30.972906,7.812500
1164.000000,-0.013485,0.009613,30.985657,7.812500
1165.000000,-0.012417,0.009658,30.995716,7.812500
1166.000000,-0.010433,0.009677,31.012339,7.812500
1167.000000,-0.010815,0.009689,31.022974,7.812500
1168.000000,-0.010815,0.009680,31.029221,7.812500
1169.000000,-0.011425,0.009704,31.037306,7.812500
1170.000000,-0.001507,0.009699,31.066854,7.812500
1171.000000,-0.001354,0.009692,31.098639,7.812500
1172.000000,-0.008602,0.009695,31.125149,7.812500
1173.000000,-0.011120,0.009743,31.156067,7.812500
1174.000000,-0.010357,0.009773,31.185093,7.812500
1175.000000,-0.009213,0.009781,31.211403,7.812500
1176.000000,-0.010357,0.009774,31.243647,7.812500
1177.000000,-0.008221,0.009785,31.277786,7.812500
1178.000000,-0.008068,0.009800,31.325312,7.812500
1179.000000,-0.005398,0.009750,31.369072,7.812500
1180.000000,-0.010052,0.009758,31.403534,7.812500
1181.000000,-0.009899,0.009771,31.438112,7.812500
1182.000000,-0.009594,0.009780,31.485920,7.812500
1183.000000,-0.010128,0.009785,31.537846,7.812500
1184.000000,-0.011044,0.009811,31.606152,7.812500
1185.000000,-0.009594,0.009800,31.674133,7.812500
1186.000000,-0.011501,0.009818,31.738230,7.812500
1187.000000,-0.008984,0.009787,31.802193,7.812500
1188.000000,-0.009289,0.009762,31.869488,7.812500
1189.000000,-0.008450,0.009733,31.934607,7.812500
1190.000000,-0.010281,0.009737,32.029289,7.812500
1191.000000,-0.012341,0.009751,32.137817,7.812500
1192.000000,-0.012493,0.009728,32.228092,7.812500
1193.000000,-0.010891,0.009699,32.313042,7.812500
1194.000000,-0.012722,0.009733,32.414642,7.812500
1195.000000,-0.009823,0.009727,32.516243,7.812500
1196.000000,-0.007305,0.009711,32.623905,7.812500
1197.000000,-0.006542,0.009691,32.745640,7.812500
1198.000000,-0.007839,0.009662,32.882271,7.812500
1199.000000,-0.009976,0.009647,33.011871,7.812500
1200.000000,-0.010662,0.009632,33.114563,7.812500
1201.000000,-0.009823,0.009623,33.229691,7.812500
1202.000000,-0.008450,0.009628,33.359821,7.812500
1203.000000,-0.007687,0.009619,33.498535,7.812500
1204.000000,-0.007153,0.009625,33.626167,7.812500
1205.000000,-0.006619,0.009622,33.755848,7.812500
1206.000000,-0.008145,0.009620,33.858463,7.812500
1207.000000,-0.009060,0.009610,33.968483,7.812500
1208.000000,-0.007916,0.009580,34.095581,7.812500
1209.000000,-0.004635,0.009557,34.244892,7.812500
1210.000000,-0.006390,0.009554,34.373592,7.812500
1211.000000,-0.007229,0.009565,34.494564,7.812500
1212.000000,-0.008526,0.009573,34.601158,7.812500
1213.000000,-0.006924,0.009567,34.705364,7.812500
1214.000000,-0.009823,0.009574,34.801464,7.812500
1215.000000,-0.009289,0.009584,34.909184,7.812500
1216.000000,-0.009060,0.009584,35.001099,7.812500
1217.000000,-0.007000,0.009573,35.108784,7.812500
1218.000000,-0.005779,0.009553,35.217068,7.812500
1219.000000,-0.007839,0.009535,35.328373,7.812500
1220.000000,-0.012112,0.009575,35.413715,7.812500
1221.000000,-0.009899,0.009583,35.481480,7.812500
1222.000000,-0.012036,0.009612,35.565392,7.812500
1223.000000,-0.009823,0.009640,35.633629,7.812500
1224.000000,-0.009060,0.009644,35.705406,7.812500
1225.000000,-0.009442,0.009632,35.764141,7.812500
1226.000000,-0.011883,0.009645,35.808243,7.812500
1227.000000,-0.011349,0.009655,35.866512,7.812500
1228.000000,-0.012493,0.009693,35.921150,7.812500
1229.000000,-0.009060,0.009719,35.964539,7.812500
1230.000000,-0.011959,0.009744,36.017944,7.812500
1231.000000,-0.013943,0.009801,36.075108,7.812500
1232.000000,-0.010357,0.009801,36.121971,7.812500
1233.000000,-0.012264,0.009840,36.153721,7.812500
1234.000000,-0.010433,0.009841,36.169693,7.812500
1235.000000,-0.007458,0.009822,36.175705,7.812500
1236.000000,-0.009899,0.009814,36.198475,7.812500
1237.000000,-0.009442,0.009840,36.238468,7.812500
1238.000000,-0.011273,0.009875,36.266903,7.812500
1239.000000,-0.014096,0.009937,36.267799,7.812500
1240.000000,-0.011959,0.009937,36.260563,7.812500
1241.000000,-0.011807,0.009941,36.218533,7.812500
1242.000000,-0.009899,0.009937,36.191933,7.812500
1243.000000,-0.005703,0.009905,36.162785,7.812500
1244.000000,-0.007458,0.009901,36.120575,7.812500
1245.000000,-0.007458,0.009881,36.070606,7.812500
1246.000000,-0.009213,0.009848,36.020863,7.812500
1247.000000,-0.010052,0.009819,35.968437,7.812500
1248.000000,-0.012341,0.009860,35.905689,7.812500
1249.000000,-0.007839,0.009857,35.843796,7.812500
1250.000000,-0.008755,0.009850,35.774582,7.812500
1251.000000,-0.008145,0.009819,35.702278,7.812500
1252.000000,-0.008526,0.009789,35.628147,7.812500
1253.000000,-0.007763,0.009739,35.549015,7.812500
1254.000000,-0.009594,0.009707,35.441353,7.812500
1255.000000,-0.010510,0.009698,35.344402,7.812500
1256.000000,-0.009365,0.009672,35.262135,7.812500
1257.000000,-0.009747,0.009653,35.164120,7.812500
1258.000000,-0.010357,0.009653,35.064186,7.812500
1259.000000,-0.010052,0.009641,34.955391,7.812500
1260.000000,-0.007610,0.009619,34.831028,7.812500
1261.000000,-0.004330,0.009594,34.704617,7.812500
1262.000000,-0.003796,0.009576,34.579720,7.812500
1263.000000,-0.009747,0.009595,34.461597,7.812500
1264.000000,-0.014935,0.009617,34.345280,7.812500
1265.000000,-0.012036,0.009612,34.230556,7.812500
1266.000000,-0.014172,0.009660,34.116798,7.812500
1267.000000,-0.005474,0.009614,34.000912,7.812500
1268.000000,-0.008602,0.009592,33.885208,7.812500
1269.000000,-0.005169,0.009538,33.770329,7.812500
1270.000000,-0.010739,0.009597,33.661266,7.812500
1271.000000,-0.004482,0.009606,33.553936,7.812500
1272.000000,-0.005779,0.009585,33.454319,7.812500
1273.000000,-0.008755,0.009561,33.354294,7.812500
1274.000000,-0.011044,0.009568,33.258636,7.812500
1275.000000,-0.009442,0.009571,33.166458,7.812500
1276.000000,-0.010357,0.009571,33.076550,7.812500
1277.000000,-0.007992,0.009569,32.990276,7.812500
1278.000000,-0.008831,0.009575,32.911369,7.812500
1279.000000,-0.009289,0.009605,32.836720,7.812500
1280.000000,-0.010815,0.009613,32.766304,7.812500
1281.000000,-0.008297,0.009598,32.697678,7.812500
1282.000000,-0.006619,0.009573,32.632858,7.812500
1283.000000,-0.008984,0.009562,32.567410,7.812500
1284.000000,-0.010357,0.009554,32.511322,7.812500
1285.000000,-0.010357,0.009562,32.460423,7.812500
1286.000000,-0.011120,0.009557,32.415829,7.812500
1287.000000,-0.012570,0.009598,32.378460,7.812500
1288.000000,-0.010891,0.009615,32.377644,7.812500
1289.000000,-0.009670,0.009626,32.375549,7.812500
1290.000000,-0.011349,0.009638,32.375935,7.812500
1291.000000,-0.010052,0.009611,32.388748,7.812500
1292.000000,-0.010739,0.009590,32.406937,7.812500
1293.000000,-0.011120,0.009593,32.422718,7.812500
1294.000000,-0.015011,0.009626,32.445488,7.812500
1295.000000,-0.013027,0.009664,32.462261,7.812500
1296.000000,-0.011196,0.009701,32.474621,7.812500
1297.000000,-0.008526,0.009716,32.489014,7.812500
1298.000000,-0.010052,0.009737,32.525967,7.812500
1299.000000,-0.011044,0.009748,32.565346,7.812500
1300.000000,-0.011425,0.009757,32.599487,7.812500
1301.000000,-0.011273,0.009773,32.638531,7.812500
1302.000000,-0.011654,0.009805,32.675865,7.812500
1303.000000,-0.011273,0.009840,32.710430,7.812500
1304.000000,-0.008755,0.009853,32.751247,7.812500
1305.000000,-0.011196,0.009894,32.794231,7.812500
1306.000000,-0.010967,0.009922,32.851349,7.812500
1307.000000,-0.010357,0.009934,32.904728,7.812500
1308.000000,-0.010357,0.009957,32.948612,7.812500
1309.000000,-0.008526,0.009982,32.992771,7.812500
1310.000000,-0.007153,0.009987,33.050816,7.812500
1311.000000,-0.007458,0.009989,33.113319,7.812500
1312.000000,-0.011959,0.010024,33.193058,7.812500
1313.000000,-0.011120,0.010062,33.272568,7.812500
1314.000000,-0.009899,0.010063,33.348164,7.812500
1315.000000,-0.011044,0.010080,33.423790,7.812500
1316.000000,-0.009747,0.010087,33.502998,7.812500
1317.000000,-0.008831,0.010101,33.580067,7.812500
1318.000000,-0.007229,0.010111,33.688084,7.812500
1319.000000,-0.008679,0.010117,33.810596,7.812500
1320.000000,-0.009670,0.010091,33.914158,7.812500
1321.000000,-0.007916,0.010074,34.012268,7.812500
1322.000000,-0.009289,0.010044,34.127789,7.812500
1323.000000,-0.008984,0.010037,34.243366,7.812500
1324.000000,-0.009136,0.010037,34.365280,7.812500
1325.000000,-0.009518,0.010038,34.501942,7.812500
1326.000000,-0.009899,0.010016,34.654118,7.812500
1327.000000,-0.011196,0.010015,34.798885,7.812500
1328.000000,-0.008221,0.009970,34.915768,7.812500
1329.000000,-0.005703,0.009946,35.045521,7.812500
1330.000000,-0.005779,0.009890,35.190811,7.812500
1331.000000,-0.006161,0.009811,35.345047,7.812500
1332.000000,-0.006771,0.009780,35.487717,7.812500
1333.000000,-0.010357,0.009757,35.632339,7.812500
1334.000000,-0.009823,0.009751,35.748367,7.812500
1335.000000,-0.009213,0.009766,35.871746,7.812500
1336.000000,-0.007610,0.009746,36.013222,7.812500
1337.000000,-0.006619,0.009722,36.177654,7.812500
1338.000000,-0.006542,0.009679,36.320534,7.812500
1339.000000,-0.007382,0.009604,36.455208,7.812500
1340.000000,-0.008068,0.009563,36.574760,7.812500
1341.000000,-0.008450,0.009528,36.691044,7.812500
1342.000000,-0.009518,0.009524,36.798515,7.812500
1343.000000,-0.009747,0.009557,36.918270,7.812500
1344.000000,-0.006466,0.009549,37.021183,7.812500
1345.000000,-0.007763,0.009552,37.140213,7.812500
1346.000000,-0.009747,0.009557,37.259525,7.812500
1347.000000,-0.010967,0.009567,37.381603,7.812500
1348.000000,-0.010204,0.009542,37.476105,7.812500
1349.000000,-0.007382,0.009538,37.551956,7.812500
1350.000000,-0.008755,0.009538,37.644131,7.812500
1351.000000,-0.008373,0.009540,37.719597,7.812500
1352.000000,-0.010052,0.009555,37.798355,7.812500
1353.000000,-0.010357,0.009580,37.862957,7.812500
1354.000000,-0.011959,0.009606,37.911797,7.812500
1355.000000,-0.011425,0.009617,37.974953,7.812500
1356.000000,-0.011120,0.009635,38.033806,7.812500
1357.000000,-0.011273,0.009652,38.080299,7.812500
1358.000000,-0.010662,0.009655,38.136887,7.812500
1359.000000,-0.008145,0.009637,38.196835,7.812500
1360.000000,-0.007305,0.009635,38.245705,7.812500
1361.000000,-0.006924,0.009650,38.278374,7.812500
1362.000000,-0.008297,0.009678,38.294064,7.812500
1363.000000,-0.011273,0.009695,38.298851,7.812500
1364.000000,-0.014553,0.009689,38.320614,7.812500
1365.000000,-0.010739,0.009674,38.359943,7.812500
1366.000000,-0.013027,0.009658,38.386868,7.812500
1367.000000,-0.011349,0.009709,38.384438,7.812500
1368.000000,-0.011654,0.009741,38.373192,7.812500
1369.000000,-0.005169,0.009741,38.325188,7.812500
1370.000000,-0.005093,0.009695,38.292873,7.812500
1371.000000,-0.006466,0.009706,38.257572,7.812500
1372.000000,-0.011883,0.009761,38.208385,7.812500
1373.000000,-0.011807,0.009793,38.150654,7.812500
1374.000000,-0.012493,0.009811,38.092888,7.812500
1375.000000,-0.009518,0.009811,38.031883,7.812500
1376.000000,-0.010433,0.009812,37.959747,7.812500
1377.000000,-0.009594,0.009827,37.888260,7.812500
1378.000000,-0.008373,0.009823,37.808781,7.812500
1379.000000,-0.010510,0.009835,37.725761,7.812500
1380.000000,-0.010052,0.009827,37.640697,7.812500
1381.000000,-0.011654,0.009861,37.550175,7.812500
1382.000000,-0.006619,0.009861,37.429646,7.812500
1383.000000,-0.009213,0.009863,37.320080,7.812500
1384.000000,-0.008221,0.009843,37.225674,7.812500
1385.000000,-0.009518,0.009834,37.114632,7.812500
1386.000000,-0.009213,0.009815,37.001427,7.812500
1387.000000,-0.010739,0.009793,36.878834,7.812500
1388.000000,-0.009136,0.009775,36.739880,7.812500
1389.000000,-0.010433,0.009783,36.598679,7.812500
1390.000000,-0.008679,0.009755,36.458969,7.812500
1391.000000,-0.009976,0.009754,36.326214,7.812500
1392.000000,-0.009518,0.009742,36.195263,7.812500
1393.000000,-0.009899,0.009729,36.065968,7.812500
1394.000000,-0.007763,0.009643,35.937592,7.812500
1395.000000,-0.007992,0.009588,35.806976,7.812500
1396.000000,-0.008450,0.009560,35.676521,7.812500
1397.000000,-0.009213,0.009567,35.546944,7.812500
1398.000000,-0.010586,0.009572,35.423382,7.812500
1399.000000,-0.013790,0.009608,35.301651,7.812500
1400.000000,-0.011692,0.009611,35.187939,7.812500
1401.000000,-0.007801,0.009577,35.073902,7.812500
1402.000000,-0.008183,0.009541,34.964394,7.812500
1403.000000,-0.009022,0.009517,34.858536,7.812500
1404.000000,-0.011311,0.009543,34.755028,7.812500
1405.000000,-0.012455,0.009559,34.655357,7.812500
1406.000000,-0.010853,0.009558,34.563469,7.812500
1407.000000,-0.012455,0.009583,34.476170,7.812500
1408.000000,-0.009785,0.009577,34.393295,7.812500
1409.000000,-0.011158,0.009604,34.312271,7.812500
1410.000000,-0.008106,0.009611,34.235229,7.812500
1411.000000,-0.010319,0.009638,34.157585,7.812500
1412.000000,-0.010700,0.009623,34.089958,7.812500
1413.000000,-0.013066,0.009647,34.027821,7.812500
1414.000000,-0.011616,0.009666,33.972240,7.812500
1415.000000,-0.007954,0.009636,33.924252,7.812500
1416.000000,-0.009556,0.009634,33.914227,7.812500
1417.000000,-0.006962,0.009619,33.902958,7.812500
1418.000000,-0.007649,0.009622,33.894279,7.812500
1419.000000,-0.010395,0.009639,33.898659,7.812500
1420.000000,-0.010472,0.009647,33.908699,7.812500
1421.000000,-0.011311,0.009681,33.916424,7.812500
1422.000000,-0.007877,0.009669,33.931469,7.812500
1423.000000,-0.008259,0.009662,33.940289,7.812500
1424.000000,-0.007420,0.009648,33.944729,7.812500
1425.000000,-0.006199,0.009620,33.951359,7.812500
1426.000000,-0.006809,0.009594,33.981544,7.812500
1427.000000,-0.007801,0.009560,34.014423,7.812500
1428.000000,-0.007954,0.009558,34.041828,7.812500
1429.000000,-0.008488,0.009578,34.074474,7.812500
1430.000000,-0.009480,0.009608,34.105427,7.812500
1431.000000,-0.008640,0.009627,34.133644,7.812500
1432.000000,-0.008717,0.009642,34.168427,7.812500
1433.000000,-0.009861,0.009637,34.205460,7.812500
1434.000000,-0.007420,0.009616,34.257866,7.812500
1435.000000,-0.008946,0.009613,34.306511,7.812500
1436.000000,-0.007267,0.009611,34.345203,7.812500
1437.000000,-0.006199,0.009608,34.384274,7.812500
1438.000000,-0.009403,0.009631,34.437916,7.812500
1439.000000,-0.011997,0.009678,34.496346,7.812500
1440.000000,-0.011616,0.009714,34.572701,7.812500
1441.000000,-0.009327,0.009722,34.649120,7.812500
1442.000000,-0.008793,0.009715,34.721584,7.812500
1443.000000,-0.007267,0.009693,34.794388,7.812500
1444.000000,-0.009556,0.009719,34.870857,7.812500
1445.000000,-0.009403,0.009733,34.945232,7.812500
1446.000000,-0.010090,0.009737,35.051846,7.812500
1447.000000,-0.010395,0.009730,35.173645,7.812500
1448.000000,-0.012608,0.009759,35.276031,7.812500
1449.000000,-0.012913,0.009816,35.372955,7.812500
1450.000000,-0.006580,0.009799,35.487907,7.812500
1451.000000,-0.008030,0.009796,35.603115,7.812500
1452.000000,-0.008946,0.009785,35.725086,7.812500
1453.000000,-0.009480,0.009776,35.862434,7.812500
1454.000000,-0.011006,0.009765,36.015877,7.812500
1455.000000,-0.012379,0.009777,36.161785,7.812500
1456.000000,-0.013905,0.009812,36.279224,7.812500
1457.000000,-0.011921,0.009820,36.410122,7.812500
1458.000000,-0.010319,0.009816,36.556843,7.812500
1459.000000,-0.011616,0.009851,36.713058,7.812500
1460.000000,-0.008640,0.009862,36.857693,7.812500
1461.000000,-0.007496,0.009866,37.004509,7.812500
1462.000000,-0.007115,0.009857,37.122040,7.812500
1463.000000,-0.008564,0.009830,37.247204,7.812500
1464.000000,-0.013142,0.009810,37.391029,7.812500
1465.000000,-0.012226,0.009827,37.558510,7.812500
1466.000000,-0.009251,0.009784,37.703926,7.812500
1467.000000,-0.011234,0.009783,37.840939,7.812500
1468.000000,-0.012837,0.009798,37.962532,7.812500
1469.000000,-0.013905,0.009882,38.080856,7.812500
1470.000000,-0.004368,0.009879,38.190262,7.812500
1471.000000,-0.004597,0.009869,38.312309,7.812500
1472.000000,-0.004749,0.009808,38.416855,7.812500
1473.000000,-0.009785,0.009786,38.537674,7.812500
1474.000000,-0.011387,0.009772,38.659073,7.812500
1475.000000,-0.012379,0.009804,38.783157,7.812500
1476.000000,-0.010777,0.009808,38.878838,7.812500
1477.000000,-0.008335,0.009797,38.954895,7.812500
1478.000000,-0.007801,0.009792,39.049488,7.812500
1479.000000,-0.008488,0.009772,39.126709,7.812500
1480.000000,-0.011616,0.009790,39.207150,7.812500
1481.000000,-0.011387,0.009786,39.272247,7.812500
1482.000000,-0.008640,0.009802,39.320724,7.812500
1483.000000,-0.009251,0.009803,39.383865,7.812500
1484.000000,-0.009098,0.009810,39.443390,7.812500
1485.000000,-0.007801,0.009795,39.490192,7.812500
1486.000000,-0.009709,0.009800,39.547581,7.812500
1487.000000,-0.010853,0.009801,39.607929,7.812500
1488.000000,-0.009785,0.009807,39.656342,7.812500
1489.000000,-0.007725,0.009782,39.688118,7.812500
1490.000000,-0.007038,0.009769,39.703033,7.812500
1491.000000,-0.007877,0.009750,39.706512,7.812500
1492.000000,-0.009403,0.009749,39.727406,7.812500
1493.000000,-0.010624,0.009756,39.765972,7.812500
1494.000000,-0.008259,0.009761,39.791775,7.812500
1495.000000,-0.007267,0.009755,39.787403,7.812500
1496.000000,-0.007954,0.009751,39.773716,7.812500
1497.000000,-0.005589,0.009723,39.722446,7.812500
1498.000000,-0.006275,0.009686,39.687061,7.812500
1499.000000,-0.006352,0.009608,39.648399,7.812500
1500.000000,-0.007038,0.009563,39.595432,7.812500
1501.000000,-0.007115,0.009557,39.533585,7.812500
1502.000000,-0.007572,0.009552,39.471725,7.812500
1503.000000,-0.008259,0.009545,39.406425,7.812500
1504.000000,-0.006657,0.009501,39.329575,7.812500
1505.000000,-0.008640,0.009459,39.253185,7.812500
1506.000000,-0.007877,0.009429,39.168587,7.812500
1507.000000,-0.009098,0.009391,39.080578,7.812500
1508.000000,-0.009709,0.009390,38.990391,7.812500
1509.000000,-0.008488,0.009362,38.894604,7.812500
1510.000000,-0.007801,0.009360,38.767929,7.812500
1511.000000,-0.008869,0.009345,38.652504,7.812500
1512.000000,-0.010548,0.009343,38.552284,7.812500
1513.000000,-0.009403,0.009299,38.435616,7.812500
1514.000000,-0.010548,0.009286,38.316597,7.812500
1515.000000,-0.011769,0.009327,38.188175,7.812500
1516.000000,-0.010929,0.009342,38.043034,7.812500
1517.000000,-0.008259,0.009352,37.895611,7.812500
1518.000000,-0.009861,0.009373,37.749542,7.812500
1519.000000,-0.012303,0.009396,37.610699,7.812500
1520.000000,-0.013218,0.009431,37.474102,7.812500
1521.000000,-0.009937,0.009415,37.339142,7.812500
1522.000000,-0.010853,0.009445,37.205292,7.812500
1523.000000,-0.009709,0.009458,37.069420,7.812500
1524.000000,-0.006275,0.009450,36.933983,7.812500
1525.000000,-0.009937,0.009482,36.799603,7.812500
1526.000000,-0.010777,0.009519,36.671631,7.812500
1527.000000,-0.012303,0.009566,36.545414,7.812500
1528.000000,-0.009480,0.009580,36.427330,7.812500
1529.000000,-0.009480,0.009589,36.309048,7.812500
1530.000000,-0.007496,0.009572,36.195480,7.812500
1531.000000,-0.008488,0.009570,36.086365,7.812500
1532.000000,-0.008946,0.009572,35.979401,7.812500
1533.000000,-0.009022,0.009564,35.877022,7.812500
1534.000000,-0.007801,0.009567,35.782524,7.812500
1535.000000,-0.007877,0.009558,35.693298,7.812500
1536.000000,-0.007115,0.009557,35.608574,7.812500
1537.000000,-0.008106,0.009571,35.525852,7.812500
1538.000000,-0.007343,0.009553,35.447300,7.812500
1539.000000,-0.008640,0.009517,35.368412,7.812500
1540.000000,-0.009403,0.009492,35.300007,7.812500
1541.000000,-0.009709,0.009496,35.237549,7.812500
1542.000000,-0.009251,0.009500,35.181969,7.812500
1543.000000,-0.005512,0.009488,35.134388,7.812500
1544.000000,-0.006733,0.009464,35.125908,7.812500
1545.000000,-0.006504,0.009440,35.116539,7.812500
1546.000000,-0.008259,0.009422,35.110096,7.812500
1547.000000,-0.011921,0.009440,35.117252,7.812500
1548.000000,-0.010090,0.009410,35.130413,7.812500
1549.000000,-0.010014,0.009374,35.141422,7.812500
1550.000000,-0.008106,0.009386,35.160114,7.812500
1551.000000,-0.009251,0.009398,35.172260,7.812500
1552.000000,-0.007572,0.009385,35.180256,7.812500
1553.000000,-0.009327,0.009384,35.190769,7.812500
1554.000000,-0.012074,0.009397,35.225708,7.812500
1555.000000,-0.013676,0.009415,35.264084,7.812500
1556.000000,-0.010472,0.009370,35.296787,7.812500
1557.000000,-0.008793,0.009336,35.335022,7.812500
1558.000000,-0.011158,0.009345,35.371101,7.812500
1559.000000,-0.010243,0.009329,35.404819,7.812500
1560.000000,-0.009937,0.009342,35.445461,7.812500
1561.000000,-0.009022,0.009356,35.489124,7.812500
1562.000000,-0.007572,0.009359,35.548916,7.812500
1563.000000,-0.009251,0.009366,35.605022,7.812500
1564.000000,-0.012684,0.009360,35.650604,7.812500
1565.000000,-0.011769,0.009354,35.696510,7.812500
1566.000000,-0.011082,0.009374,35.757759,7.812500
1567.000000,-0.006733,0.009330,35.823971,7.812500
1568.000000,-0.010548,0.009302,35.908974,7.812500
1569.000000,-0.007649,0.009229,35.993736,7.812500
1570.000000,-0.011082,0.009285,36.074326,7.812500
1571.000000,-0.005055,0.009287,36.155567,7.812500
1572.000000,-0.008793,0.009317,36.241009,7.812500
1573.000000,-0.007801,0.009298,36.324352,7.812500
1574.000000,-0.009709,0.009279,36.440907,7.812500
1575.000000,-0.008717,0.009237,36.572624,7.812500
1576.000000,-0.010014,0.009229,36.684219,7.812500
1577.000000,-0.010395,0.009249,36.789921,7.812500
1578.000000,-0.010319,0.009274,36.914543,7.812500
1579.000000,-0.009861,0.009288,37.038589,7.812500
1580.000000,-0.010548,0.009275,37.169956,7.812500
1581.000000,-0.010014,0.009259,37.316994,7.812500
1582.000000,-0.010395,0.009277,37.480793,7.812500
1583.000000,-0.010395,0.009289,37.636364,7.812500
1584.000000,-0.008412,0.009283,37.762383,7.812500
1585.000000,-0.011387,0.009320,37.902184,7.812500
1586.000000,-0.011845,0.009344,38.057846,7.812500
1587.000000,-0.011769,0.009355,38.222958,7.812500
1588.000000,-0.011006,0.009369,38.375828,7.812500
1589.000000,-0.010624,0.009397,38.530529,7.812500
1590.000000,-0.011769,0.009445,38.654694,7.812500
1591.000000,-0.012150,0.009490,38.786255,7.812500
1592.000000,-0.009403,0.009490,38.936638,7.812500
1593.000000,-0.009709,0.009480,39.111057,7.812500
1594.000000,-0.011006,0.009508,39.262138,7.812500
1595.000000,-0.010929,0.009543,39.403912,7.812500
1596.000000,-0.009861,0.009561,39.529236,7.812500
1597.000000,-0.009098,0.009587,39.650867,7.812500
1598.000000,-0.008869,0.009608,39.762684,7.812500
1599.000000,-0.008106,0.009621,39.886841,7.812500
1600.000000,-0.010929,0.009657,39.992527,7.812500
1601.000000,-0.008106,0.009665,40.114212,7.812500
1602.000000,-0.008412,0.009672,40.235683,7.812500
1603.000000,-0.009327,0.009682,40.359390,7.812500
1604.000000,-0.008259,0.009694,40.453598,7.812500
1605.000000,-0.008488,0.009693,40.527298,7.812500
1606.000000,-0.007496,0.009690,40.619751,7.812500
1607.000000,-0.008488,0.009684,40.694038,7.812500
1608.000000,-0.010166,0.009689,40.769886,7.812500
1609.000000,-0.009785,0.009701,40.830307,7.812500
1610.000000,-0.006123,0.009689,40.873558,7.812500
1611.000000,-0.007649,0.009679,40.931469,7.812500
1612.000000,-0.007115,0.009647,40.985291,7.812500
1613.000000,-0.008259,0.009637,41.024960,7.812500
1614.000000,-0.009098,0.009622,41.075600,7.812500
1615.000000,-0.008564,0.009588,41.128559,7.812500
1616.000000,-0.012989,0.009614,41.168900,7.812500
1617.000000,-0.009480,0.009625,41.192009,7.812500
1618.000000,-0.005360,0.009589,41.198715,7.812500
1619.000000,-0.008259,0.009546,41.192913,7.812500
1620.000000,-0.010777,0.009515,41.204697,7.812500
1621.000000,-0.011845,0.009537,41.234116,7.812500
1622.000000,-0.008793,0.009516,41.249943,7.812500
1623.000000,-0.008717,0.009506,41.234318,7.812500
1624.000000,-0.009022,0.009528,41.207939,7.812500
1625.000000,-0.008183,0.009512,41.143539,7.812500
1626.000000,-0.009556,0.009499,41.096508,7.812500
1627.000000,-0.011692,0.009491,41.046043,7.812500
1628.000000,-0.011921,0.009518,40.981014,7.812500
1629.000000,-0.009022,0.009514,40.905926,7.812500
1630.000000,-0.008869,0.009526,40.831844,7.812500
1631.000000,-0.008030,0.009522,40.753952,7.812500
1632.000000,-0.008869,0.009521,40.664307,7.812500
1633.000000,-0.010395,0.009535,40.574284,7.812500
1634.000000,-0.011540,0.009573,40.475677,7.812500
1635.000000,-0.010243,0.009595,40.373470,7.812500
1636.000000,-0.009098,0.009612,40.270229,7.812500
1637.000000,-0.009556,0.009625,40.161987,7.812500
1638.000000,-0.008183,0.009632,40.022495,7.812500
1639.000000,-0.009937,0.009644,39.894295,7.812500
1640.000000,-0.011311,0.009665,39.781876,7.812500
1641.000000,-0.009785,0.009666,39.652473,7.812500
1642.000000,-0.010090,0.009674,39.520512,7.812500
1643.000000,-0.010929,0.009720,39.379795,7.812500
1644.000000,-0.009632,0.009744,39.222393,7.812500
1645.000000,-0.009480,0.009769,39.063118,7.812500
1646.000000,-0.011616,0.009803,38.904934,7.812500
1647.000000,-0.009632,0.009778,38.754574,7.812500
1648.000000,-0.011845,0.009797,38.606430,7.812500
1649.000000,-0.007420,0.009774,38.460739,7.812500
1650.000000,-0.009632,0.009788,38.316406,7.812500
1651.000000,-0.010014,0.009796,38.170448,7.812500
1652.000000,-0.011082,0.009829,38.025219,7.812500
1653.000000,-0.009403,0.009830,37.881626,7.812500
1654.000000,-0.011158,0.009819,37.744305,7.812500
1655.000000,-0.011616,0.009792,37.609623,7.812500
1656.000000,-0.012226,0.009813,37.483158,7.812500
1657.000000,-0.008183,0.009807,37.357559,7.812500
1658.000000,-0.009327,0.009788,37.236458,7.812500
1659.000000,-0.007267,0.009762,37.120209,7.812500
1660.000000,-0.009403,0.009756,37.006390,7.812500
1661.000000,-0.008412,0.009751,36.897957,7.812500
1662.000000,-0.006886,0.009746,36.797832,7.812500
1663.000000,-0.008335,0.009737,36.703804,7.812500
1664.000000,-0.012684,0.009737,36.614296,7.812500
1665.000000,-0.010166,0.009719,36.527168,7.812500
1666.000000,-0.010243,0.009710,36.444508,7.812500
1667.000000,-0.007877,0.009719,36.362190,7.812500
1668.000000,-0.010014,0.009713,36.290867,7.812500
1669.000000,-0.007954,0.009716,36.226109,7.812500
1670.000000,-0.003834,0.009660,36.168587,7.812500
1671.000000,-0.006123,0.009666,36.119465,7.812500
1672.000000,-0.009785,0.009675,36.109985,7.812500
1673.000000,-0.011311,0.009710,36.100170,7.812500
1674.000000,-0.009632,0.009709,36.093391,7.812500
1675.000000,-0.008793,0.009710,36.101097,7.812500
1676.000000,-0.007877,0.009690,36.115063,7.812500
1677.000000,-0.007267,0.009662,36.127296,7.812500
1678.000000,-0.006123,0.009626,36.147583,7.812500
1679.000000,-0.008335,0.009612,36.161209,7.812500
1680.000000,-0.010472,0.009611,36.170799,7.812500
1681.000000,-0.010166,0.009612,36.183159,7.812500
1682.000000,-0.007343,0.009584,36.220734,7.812500
1683.000000,-0.007725,0.009559,36.262104,7.812500
1684.000000,-0.007420,0.009551,36.297863,7.812500
1685.000000,-0.007267,0.009510,36.339420,7.812500
1686.000000,-0.008030,0.009470,36.378963,7.812500
1687.000000,-0.010700,0.009458,36.416321,7.812500
1688.000000,-0.011234,0.009460,36.461033,7.812500
1689.000000,-0.005894,0.009419,36.509029,7.812500
1690.000000,-0.005589,0.009362,36.573616,7.812500
1691.000000,-0.007877,0.009316,36.634583,7.812500
1692.000000,-0.008183,0.009305,36.684910,7.812500
1693.000000,-0.009098,0.009298,36.735676,7.812500
1694.000000,-0.009861,0.009285,36.802242,7.812500
1695.000000,-0.010624,0.009282,36.874161,7.812500
1696.000000,-0.009327,0.009276,36.965439,7.812500
1697.000000,-0.011082,0.009298,37.056259,7.812500
1698.000000,-0.007420,0.009285,37.142971,7.812500
1699.000000,-0.008259,0.009287,37.230453,7.812500
1700.000000,-0.008183,0.009258,37.322441,7.812500
1701.000000,-0.009251,0.009269,37.412468,7.812500
1702.000000,-0.008412,0.009269,37.536369,7.812500
1703.000000,-0.010472,0.009281,37.675667,7.812500
1704.000000,-0.011463,0.009315,37.794285,7.812500
1705.000000,-0.010014,0.009330,37.907246,7.812500
1706.000000,-0.012074,0.009378,38.039257,7.812500
1707.000000,-0.010243,0.009396,38.170891,7.812500
1708.000000,-0.010243,0.009397,38.309723,7.812500
1709.000000,-0.008564,0.009385,38.464676,7.812500
1710.000000,-0.008640,0.009404,38.636543,7.812500
1711.000000,-0.010395,0.009431,38.800114,7.812500
1712.000000,-0.010395,0.009461,38.933151,7.812500
1713.000000,-0.012150,0.009503,39.079906,7.812500
1714.000000,-0.011158,0.009525,39.244038,7.812500
1715.000000,-0.011082,0.009551,39.417217,7.812500
1716.000000,-0.009861,0.009513,39.577583,7.812500
1717.000000,-0.007572,0.009496,39.739357,7.812500
1718.000000,-0.007115,0.009508,39.869442,7.812500
1719.000000,-0.007343,0.009500,40.006935,7.812500
1720.000000,-0.010777,0.009500,40.163181,7.812500
1721.000000,-0.009174,0.009471,40.344486,7.812500
1722.000000,-0.010853,0.009492,40.501785,7.812500
1723.000000,-0.010853,0.009514,40.649052,7.812500
1724.000000,-0.008946,0.009513,40.779572,7.812500
1725.000000,-0.008488,0.009516,40.905838,7.812500
1726.000000,-0.006657,0.009491,41.021774,7.812500
1727.000000,-0.006733,0.009443,41.149834,7.812500
1728.000000,-0.008488,0.009406,41.258450,7.812500
1729.000000,-0.008106,0.009397,41.382992,7.812500
1730.000000,-0.009098,0.009400,41.508080,7.812500
1731.000000,-0.009098,0.009409,41.634735,7.812500
1732.000000,-0.009403,0.009415,41.730068,7.812500
1733.000000,-0.009022,0.009400,41.803661,7.812500
1734.000000,-0.009556,0.009378,41.898178,7.812500
1735.000000,-0.010014,0.009376,41.973770,7.812500
1736.000000,-0.010777,0.009393,42.051064,7.812500
1737.000000,-0.007267,0.009373,42.111000,7.812500
1738.000000,-0.008106,0.009372,42.152950,7.812500
1739.000000,-0.009937,0.009372,42.209385,7.812500
1740.000000,-0.011387,0.009373,42.261890,7.812500
1741.000000,-0.011387,0.009391,42.300236,7.812500
1742.000000,-0.010853,0.009400,42.349850,7.812500
1743.000000,-0.009709,0.009386,42.401550,7.812500
1744.000000,-0.008793,0.009378,42.439552,7.812500
1745.000000,-0.009174,0.009375,42.458908,7.812500
1746.000000,-0.009327,0.009349,42.462215,7.812500
1747.000000,-0.013828,0.009402,42.452892,7.812500
1748.000000,-0.012913,0.009416,42.461800,7.812500
1749.000000,-0.010014,0.009440,42.488850,7.812500
1750.000000,-0.007572,0.009421,42.501266,7.812500
1751.000000,-0.009174,0.009413,42.480907,7.812500
1752.000000,-0.011311,0.009415,42.449490,7.812500
1753.000000,-0.010395,0.009426,42.379635,7.812500
1754.000000,-0.009174,0.009404,42.327606,7.812500
1755.000000,-0.011387,0.009402,42.272583,7.812500
1756.000000,-0.011234,0.009389,42.202076,7.812500
1757.000000,-0.010166,0.009409,42.120605,7.812500
1758.000000,-0.008412,0.009400,42.040134,7.812500
1759.000000,-0.012074,0.009449,41.956097,7.812500
1760.000000,-0.008030,0.009437,41.860172,7.812500
1761.000000,-0.007343,0.009428,41.763935,7.812500
1762.000000,-0.007496,0.009432,41.658665,7.812500
1763.000000,-0.009632,0.009445,41.549774,7.812500
1764.000000,-0.009937,0.009412,41.439705,7.812500
1765.000000,-0.009403,0.009404,41.324451,7.812500
1766.000000,-0.011387,0.009417,41.177242,7.812500
1767.000000,-0.009480,0.009432,41.041603,7.812500
1768.000000,-0.011769,0.009452,40.922157,7.812500
1769.000000,-0.010700,0.009479,40.785454,7.812500
1770.000000,-0.004978,0.009484,40.646194,7.812500
1771.000000,-0.002842,0.009469,40.498043,7.812500
1772.000000,-0.008030,0.009452,40.332932,7.812500
1773.000000,-0.011158,0.009450,40.165970,7.812500
1774.000000,-0.008869,0.009443,40.000069,7.812500
1775.000000,-0.008869,0.009444,39.842392,7.812500
1776.000000,-0.011540,0.009481,39.687042,7.812500
1777.000000,-0.010090,0.009507,39.534275,7.812500
1778.000000,-0.008335,0.009524,39.383484,7.812500
1779.000000,-0.006504,0.009510,39.231220,7.812500
1780.000000,-0.009556,0.009500,39.079498,7.812500
1781.000000,-0.010014,0.009498,38.929359,7.812500
1782.000000,-0.007649,0.009501,38.785885,7.812500
1783.000000,-0.009480,0.009517,38.645317,7.812500
1784.000000,-0.007877,0.009520,38.513187,7.812500
1785.000000,-0.009709,0.009542,38.382004,7.812500
1786.000000,-0.007420,0.009537,38.255619,7.812500
1787.000000,-0.009251,0.009522,38.134327,7.812500
1788.000000,-0.011540,0.009526,38.015434,7.812500
1789.000000,-0.009251,0.009552,37.902256,7.812500
1790.000000,-0.008564,0.009574,37.797810,7.812500
1791.000000,-0.009556,0.009590,37.699680,7.812500
1792.000000,-0.009937,0.009606,37.606251,7.812500
1793.000000,-0.012455,0.009644,37.515320,7.812500
1794.000000,-0.008717,0.009633,37.429073,7.812500
1795.000000,-0.007343,0.009602,37.343266,7.812500
1796.000000,-0.007496,0.009586,37.268719,7.812500
1797.000000,-0.009327,0.009567,37.201088,7.812500
1798.000000,-0.009251,0.009583,37.140934,7.812500
1799.000000,-0.012303,0.009626,37.089420,7.812500
1800.000000,-0.010090,0.009645,37.078384,7.812500
1801.000000,-0.009861,0.009651,37.066971,7.812500
1802.000000,-0.010319,0.009669,37.058987,7.812500
1803.000000,-0.009022,0.009654,37.066128,7.812500
1804.000000,-0.008030,0.009620,37.079823,7.812500
1805.000000,-0.008412,0.009604,37.091740,7.812500
1806.000000,-0.009861,0.009579,37.111961,7.812500
1807.000000,-0.012074,0.009600,37.124859,7.812500
1808.000000,-0.009937,0.009597,37.134018,7.812500
1809.000000,-0.010624,0.009618,37.146088,7.812500
1810.000000,-0.009174,0.009623,37.184147,7.812500
1811.000000,-0.009174,0.009610,37.226830,7.812500
1812.000000,-0.009556,0.009602,37.263794,7.812500
1813.000000,-0.010548,0.009583,37.306721,7.812500
1814.000000,-0.006352,0.009539,37.347313,7.812500
1815.000000,-0.009403,0.009521,37.385647,7.812500
1816.000000,-0.010319,0.009525,37.431648,7.812500
1817.000000,-0.010548,0.009554,37.481251,7.812500
1818.000000,-0.010395,0.009584,37.548504,7.812500
1819.000000,-0.009937,0.009607,37.612358,7.812500
1820.000000,-0.010395,0.009603,37.664997,7.812500
1821.000000,-0.008183,0.009594,37.717865,7.812500
1822.000000,-0.006657,0.009555,37.787788,7.812500
1823.000000,-0.009327,0.009539,37.862801,7.812500
1824.000000,-0.007343,0.009526,37.957554,7.812500
1825.000000,-0.006580,0.009511,38.051823,7.812500
1826.000000,-0.009174,0.009532,38.141834,7.812500
1827.000000,-0.010014,0.009560,38.233013,7.812500
1828.000000,-0.011311,0.009589,38.329262,7.812500
1829.000000,-0.008106,0.009589,38.423748,7.812500
1830.000000,-0.007725,0.009577,38.552959,7.812500
1831.000000,-0.007725,0.009565,38.697262,7.812500
1832.000000,-0.005818,0.009537,38.821140,7.812500
1833.000000,-0.007038,0.009520,38.939133,7.812500
1834.000000,-0.007954,0.009505,39.076729,7.812500
1835.000000,-0.010014,0.009505,39.213409,7.812500
1836.000000,-0.009861,0.009495,39.357716,7.812500
1837.000000,-0.007877,0.009500,39.518787,7.812500
1838.000000,-0.007649,0.009496,39.697441,7.812500
1839.000000,-0.008335,0.009481,39.867596,7.812500
1840.000000,-0.008717,0.009453,40.006931,7.812500
1841.000000,-0.008717,0.009424,40.160198,7.812500
1842.000000,-0.009403,0.009409,40.331146,7.812500
1843.000000,-0.009480,0.009406,40.511223,7.812500
1844.000000,-0.011082,0.009430,40.678318,7.812500
1845.000000,-0.010166,0.009441,40.846947,7.812500
1846.000000,-0.007801,0.009427,40.983269,7.812500
1847.000000,-0.008488,0.009363,41.127113,7.812500
1848.000000,-0.010853,0.009337,41.290035,7.812500
1849.000000,-0.012455,0.009366,41.478558,7.812500
1850.000000,-0.010777,0.009398,41.642540,7.812500
1851.000000,-0.010853,0.009416,41.796242,7.812500
1852.000000,-0.011463,0.009418,41.932865,7.812500
1853.000000,-0.011616,0.009432,42.065102,7.812500
1854.000000,-0.009174,0.009432,42.186607,7.812500
1855.000000,-0.011463,0.009433,42.320351,7.812500
1856.000000,-0.012760,0.009452,42.434494,7.812500
1857.000000,-0.013066,0.009488,42.564888,7.812500
1858.000000,-0.012684,0.009535,42.695591,7.812500
1859.000000,-0.014134,0.009563,42.827805,7.812500
1860.000000,-0.010166,0.009584,42.928078,7.812500
1861.000000,-0.008183,0.009590,43.006104,7.812500
1862.000000,-0.006962,0.009586,43.105240,7.812500
1863.000000,-0.007801,0.009570,43.185097,7.812500
1864.000000,-0.012837,0.009604,43.266479,7.812500
1865.000000,-0.013447,0.009652,43.330097,7.812500
1866.000000,-0.015354,0.009707,43.375134,7.812500
1867.000000,-0.009937,0.009712,43.434734,7.812500
1868.000000,-0.012379,0.009719,43.490158,7.812500
1869.000000,-0.009251,0.009704,43.530987,7.812500
1870.000000,-0.008717,0.009731,43.583130,7.812500
1871.000000,-0.001011,0.009727,43.637222,7.812500
1872.000000,-0.005512,0.009709,43.677135,7.812500
1873.000000,-0.009098,0.009688,43.697800,7.812500
1874.000000,-0.013294,0.009738,43.701584,7.812500
1875.000000,-0.012379,0.009777,43.692532,7.812500
1876.000000,-0.011463,0.009776,43.701649,7.812500
1877.000000,-0.007496,0.009752,43.729401,7.812500
1878.000000,-0.010319,0.009771,43.742126,7.812500
1879.000000,-0.009251,0.009793,43.721680,7.812500
1880.000000,-0.010395,0.009802,43.689487,7.812500
1881.000000,-0.007649,0.009781,43.617622,7.812500
1882.000000,-0.009251,0.009794,43.563522,7.812500
1883.000000,-0.007725,0.009779,43.506214,7.812500
1884.000000,-0.007725,0.009778,43.433102,7.812500
1885.000000,-0.010090,0.009782,43.348892,7.812500
1886.000000,-0.009861,0.009803,43.265236,7.812500
1887.000000,-0.012837,0.009844,43.177826,7.812500
1888.000000,-0.012989,0.009862,43.078102,7.812500
1889.000000,-0.008869,0.009858,42.978024,7.812500
1890.000000,-0.007801,0.009852,42.868572,7.812500
1891.000000,-0.008640,0.009843,42.755444,7.812500
1892.000000,-0.007725,0.009823,42.640949,7.812500
1893.000000,-0.007649,0.009774,42.520924,7.812500
1894.000000,-0.008412,0.009771,42.368164,7.812500
1895.000000,-0.010166,0.009797,42.227001,7.812500
1896.000000,-0.008183,0.009802,42.102291,7.812500
1897.000000,-0.011158,0.009821,41.960167,7.812500
1898.000000,-0.005894,0.009795,41.815468,7.812500
1899.000000,-0.008412,0.009754,41.661533,7.812500
1900.000000,-0.006847,0.009726,41.490227,7.812500
1901.000000,-0.007000,0.009701,41.317017,7.812500
1902.000000,-0.006619,0.009669,41.144836,7.812500
1903.000000,-0.007000,0.009652,40.981060,7.812500
1904.000000,-0.009136,0.009662,40.819748,7.812500
1905.000000,-0.007916,0.009658,40.661015,7.812500
1906.000000,-0.009213,0.009651,40.504429,7.812500
1907.000000,-0.007839,0.009607,40.346333,7.812500
1908.000000,-0.009594,0.009604,40.188839,7.812500
1909.000000,-0.007076,0.009571,40.033020,7.812500
1910.000000,-0.004864,0.009540,39.884007,7.812500
1911.000000,-0.007916,0.009528,39.738083,7.812500
1912.000000,-0.007687,0.009511,39.600857,7.812500
1913.000000,-0.006847,0.009477,39.464840,7.812500
1914.000000,-0.009136,0.009500,39.333809,7.812500
1915.000000,-0.011425,0.009522,39.208027,7.812500
1916.000000,-0.010128,0.009520,39.084854,7.812500
1917.000000,-0.009289,0.009507,38.967613,7.812500
1918.000000,-0.009060,0.009493,38.859158,7.812500
1919.000000,-0.009594,0.009490,38.757446,7.812500
1920.000000,-0.010891,0.009495,38.660587,7.812500
1921.000000,-0.006924,0.009485,38.566734,7.812500
1922.000000,-0.008450,0.009500,38.477966,7.812500
1923.000000,-0.009289,0.009499,38.390232,7.812500
1924.000000,-0.010357,0.009527,38.313873,7.812500
1925.000000,-0.010204,0.009559,38.244801,7.812500
1926.000000,-0.011044,0.009579,38.183670,7.812500
1927.000000,-0.013943,0.009628,38.131500,7.812500
1928.000000,-0.010204,0.009616,38.120674,7.812500
1929.000000,-0.009518,0.009629,38.109558,7.812500
1930.000000,-0.008068,0.009631,38.102280,7.812500
1931.000000,-0.008373,0.009637,38.110985,7.812500
1932.000000,-0.009289,0.009664,38.126537,7.812500
1933.000000,-0.008526,0.009676,38.140682,7.812500
1934.000000,-0.009976,0.009695,38.163910,7.812500
1935.000000,-0.011349,0.009709,38.179813,7.812500
1936.000000,-0.009289,0.009704,38.191765,7.812500
1937.000000,-0.008907,0.009713,38.206852,7.812500
1938.000000,-0.006695,0.009706,38.248787,7.812500
1939.000000,-0.006390,0.009691,38.295784,7.812500
1940.000000,-0.009365,0.009697,38.337311,7.812500
1941.000000,-0.008145,0.009692,38.385204,7.812500
1942.000000,-0.007534,0.009676,38.431114,7.812500
1943.000000,-0.007305,0.009657,38.474945,7.812500
1944.000000,-0.006085,0.009612,38.526745,7.812500
1945.000000,-0.007153,0.009585,38.582508,7.812500
1946.000000,-0.009060,0.009596,38.656628,7.812500
1947.000000,-0.009289,0.009603,38.727516,7.812500
1948.000000,-0.007687,0.009573,38.787399,7.812500
1949.000000,-0.006695,0.009515,38.847740,7.812500
1950.000000,-0.003796,0.009461,38.925735,7.812500
1951.000000,-0.007610,0.009430,39.009033,7.812500
1952.000000,-0.009747,0.009410,39.112610,7.812500
1953.000000,-0.009213,0.009384,39.216442,7.812500
1954.000000,-0.010891,0.009402,39.316360,7.812500
1955.000000,-0.011349,0.009401,39.417568,7.812500
1956.000000,-0.011959,0.009390,39.524067,7.812500
1957.000000,-0.010357,0.009356,39.628834,7.812500
1958.000000,-0.006619,0.009294,39.768963,7.812500
1959.000000,-0.008068,0.009221,39.924976,7.812500
1960.000000,-0.012493,0.009249,40.060699,7.812500
1961.000000,-0.011425,0.009284,40.190319,7.812500
1962.000000,-0.010967,0.009322,40.340839,7.812500
1963.000000,-0.013561,0.009388,40.490524,7.812500
1964.000000,-0.011883,0.009375,40.648212,7.812500
1965.000000,-0.013027,0.009370,40.822903,7.812500
1966.000000,-0.015698,0.009375,41.015396,7.812500
1967.000000,-0.013485,0.009419,41.199203,7.812500
1968.000000,-0.014553,0.009450,41.351940,7.812500
1969.000000,-0.013790,0.009506,41.519032,7.812500
1970.000000,-0.009670,0.009515,41.703941,7.812500
1971.000000,-0.010586,0.009573,41.898735,7.812500
1972.000000,-0.013943,0.009658,42.080017,7.812500
1973.000000,-0.012722,0.009699,42.263115,7.812500
1974.000000,-0.014401,0.009715,42.413216,7.812500
1975.000000,-0.013333,0.009728,42.570538,7.812500
1976.000000,-0.012264,0.009737,42.747261,7.812500
1977.000000,-0.012875,0.009793,42.949879,7.812500
1978.000000,-0.009518,0.009785,43.127071,7.812500
1979.000000,-0.012188,0.009817,43.293571,7.812500
1980.000000,-0.013638,0.009857,43.442543,7.812500
1981.000000,-0.011501,0.009894,43.586708,7.812500
1982.000000,-0.010357,0.009905,43.719448,7.812500
1983.000000,-0.008679,0.009913,43.864220,7.812500
1984.000000,-0.008602,0.009920,43.988697,7.812500
1985.000000,-0.007229,0.009895,44.129272,7.812500
1986.000000,-0.007839,0.009877,44.270081,7.812500
1987.000000,-0.008907,0.009834,44.411835,7.812500
1988.000000,-0.009136,0.009791,44.520145,7.812500
1989.000000,-0.008373,0.009786,44.605305,7.812500
1990.000000,-0.006619,0.009778,44.711433,7.812500
1991.000000,-0.008755,0.009779,44.797508,7.812500
1992.000000,-0.007839,0.009779,44.884872,7.812500
1993.000000,-0.007610,0.009779,44.953671,7.812500
1994.000000,-0.007153,0.009769,45.002972,7.812500
1995.000000,-0.005474,0.009731,45.066471,7.812500
1996.000000,-0.006619,0.009720,45.125153,7.812500
1997.000000,-0.005779,0.009673,45.168396,7.812500
1998.000000,-0.005703,0.009671,45.222961,7.812500
1999.000000,-0.007687,0.009665,45.278706,7.812500
2000.000000,-0.010433,0.009697,45.319584,7.812500
2001.000000,-0.009289,0.009717,45.339771,7.812500
2002.000000,-0.007534,0.009723,45.342281,7.812500
2003.000000,-0.007458,0.009727,45.331562,7.812500
2004.000000,-0.007610,0.009714,45.338848,7.812500
2005.000000,-0.008831,0.009721,45.364658,7.812500
2006.000000,-0.010891,0.009739,45.374420,7.812500
2007.000000,-0.009976,0.009758,45.349476,7.812500
2008.000000,-0.008450,0.009748,45.311771,7.812500
2009.000000,-0.006085,0.009741,45.233097,7.812500
2010.000000,-0.006619,0.009751,45.172264,7.812500
2011.000000,-0.010128,0.009772,45.107975,7.812500
2012.000000,-0.011959,0.009815,45.026913,7.812500
2013.000000,-0.012341,0.009868,44.933880,7.812500
2014.000000,-0.011425,0.009892,44.840805,7.812500
2015.000000,-0.010586,0.009883,44.743595,7.812500
2016.000000,-0.009976,0.009881,44.633652,7.812500
2017.000000,-0.007458,0.009866,44.523052,7.812500
2018.000000,-0.004177,0.009833,44.402443,7.812500
2019.000000,-0.006390,0.009807,44.277699,7.812500
2020.000000,-0.010510,0.009803,44.151211,7.812500
2021.000000,-0.011578,0.009846,44.018730,7.812500
2022.000000,-0.012036,0.009884,43.852470,7.812500
2023.000000,-0.011654,0.009909,43.698116,7.812500
2024.000000,-0.007992,0.009887,43.560169,7.812500
2025.000000,-0.006771,0.009857,43.404350,7.812500
2026.000000,-0.007839,0.009826,43.245987,7.812500
2027.000000,-0.009747,0.009776,43.078022,7.812500
2028.000000,-0.012188,0.009798,42.891979,7.812500
2029.000000,-0.009060,0.009794,42.703796,7.812500
2030.000000,-0.007458,0.009789,42.516685,7.812500
2031.000000,-0.007458,0.009782,42.337986,7.812500
2032.000000,-0.009136,0.009780,42.162209,7.812500
2033.000000,-0.010281,0.009797,41.989014,7.812500
2034.000000,-0.012341,0.009824,41.817596,7.812500
2035.000000,-0.013180,0.009847,41.644302,7.812500
2036.000000,-0.010662,0.009861,41.471806,7.812500
2037.000000,-0.009899,0.009870,41.301659,7.812500
2038.000000,-0.008602,0.009885,41.138443,7.812500
2039.000000,-0.009442,0.009910,40.978447,7.812500
2040.000000,-0.011120,0.009928,40.827473,7.812500
2041.000000,-0.011196,0.009957,40.677628,7.812500
2042.000000,-0.010815,0.009988,40.532677,7.812500
2043.000000,-0.012036,0.010033,40.392887,7.812500
2044.000000,-0.009899,0.010064,40.256416,7.812500
2045.000000,-0.012493,0.010116,40.126263,7.812500
2046.000000,-0.011196,0.010137,40.005093,7.812500
2047.000000,-0.011883,0.010164,39.891045,7.812500
2048.000000,-0.011807,0.010203,39.781765,7.812500
2049.000000,-0.010967,0.010240,39.675896,7.812500
2050.000000,-0.008145,0.010266,39.575157,7.812500
2051.000000,-0.008297,0.010271,39.475723,7.812500
2052.000000,-0.008984,0.010264,39.388573,7.812500
2053.000000,-0.012951,0.010304,39.308441,7.812500
2054.000000,-0.013027,0.010329,39.236652,7.812500
2055.000000,-0.011883,0.010335,39.174206,7.812500
2056.000000,-0.012112,0.010337,39.153992,7.812500
2057.000000,-0.010281,0.010336,39.134106,7.812500
2058.000000,-0.008907,0.010353,39.118187,7.812500
2059.000000,-0.008145,0.010354,39.118507,7.812500
2060.000000,-0.008068,0.010310,39.125900,7.812500
2061.000000,-0.008602,0.010282,39.131794,7.812500
2062.000000,-0.008602,0.010260,39.147068,7.812500
2063.000000,-0.007916,0.010201,39.155670,7.812500
2064.000000,-0.012570,0.010209,39.160156,7.812500
2065.000000,-0.008984,0.010165,39.168243,7.812500
2066.000000,-0.009136,0.010085,39.203968,7.812500
2067.000000,-0.010281,0.010047,39.244942,7.812500
2068.000000,-0.008602,0.009978,39.280472,7.812500
2069.000000,-0.007458,0.009910,39.322628,7.812500
2070.000000,-0.004253,0.009872,39.363129,7.812500
2071.000000,-0.003872,0.009823,39.401974,7.812500
2072.000000,-0.007382,0.009751,39.448483,7.812500
2073.000000,-0.007763,0.009699,39.499565,7.812500
2074.000000,-0.009976,0.009643,39.569279,7.812500
2075.000000,-0.009518,0.009598,39.635841,7.812500
2076.000000,-0.007992,0.009553,39.691616,7.812500
2077.000000,-0.005703,0.009483,39.748161,7.812500
2078.000000,-0.006390,0.009457,39.822643,7.812500
2079.000000,-0.006771,0.009402,39.902725,7.812500
2080.000000,-0.008068,0.009338,40.003315,7.812500
2081.000000,-0.010281,0.009323,40.104286,7.812500
2082.000000,-0.009594,0.009315,40.201481,7.812500
2083.000000,-0.007000,0.009301,40.300140,7.812500
2084.000000,-0.007153,0.009289,40.404243,7.812500
2085.000000,-0.008450,0.009299,40.506710,7.812500
2086.000000,-0.009442,0.009314,40.645069,7.812500
2087.000000,-0.012417,0.009354,40.799431,7.812500
2088.000000,-0.009899,0.009362,40.933689,7.812500
2089.000000,-0.008984,0.009368,41.062172,7.812500
2090.000000,-0.009747,0.009395,41.211624,7.812500
2091.000000,-0.010967,0.009418,41.360088,7.812500
2092.000000,-0.009213,0.009430,41.516544,7.812500
2093.000000,-0.011807,0.009474,41.690647,7.812500
2094.000000,-0.010586,0.009506,41.882927,7.812500
2095.000000,-0.012875,0.009577,42.066898,7.812500
2096.000000,-0.009442,0.009600,42.219658,7.812500
2097.000000,-0.006313,0.009604,42.386745,7.812500
2098.000000,-0.007534,0.009616,42.571819,7.812500
2099.000000,-0.010662,0.009645,42.766830,7.812500
2100.000000,-0.012303,0.009667,42.948193,7.812500
2101.000000,-0.011082,0.009686,43.131912,7.812500
2102.000000,-0.010548,0.009714,43.282482,7.812500
2103.000000,-0.007115,0.009711,43.440495,7.812500
2104.000000,-0.006352,0.009702,43.617722,7.812500
2105.000000,-0.008183,0.009696,43.820709,7.812500
2106.000000,-0.007343,0.009663,43.998245,7.812500
2107.000000,-0.008488,0.009649,44.165401,7.812500
2108.000000,-0.011311,0.009678,44.315037,7.812500
2109.000000,-0.008412,0.009695,44.459862,7.812500
2110.000000,-0.008106,0.009707,44.593456,7.812500
2111.000000,-0.009251,0.009698,44.738728,7.812500
2112.000000,-0.007115,0.009650,44.863297,7.812500
2113.000000,-0.005512,0.009587,45.003933,7.812500
2114.000000,-0.009632,0.009567,45.144855,7.812500
2115.000000,-0.008869,0.009550,45.286850,7.812500
2116.000000,-0.008335,0.009534,45.395737,7.812500
2117.000000,-0.010853,0.009566,45.480869,7.812500
2118.000000,-0.009327,0.009603,45.587383,7.812500
2119.000000,-0.011158,0.009646,45.673569,7.812500
2120.000000,-0.010319,0.009644,45.760223,7.812500
2121.000000,-0.010395,0.009631,45.827633,7.812500
2122.000000,-0.010014,0.009608,45.876583,7.812500
2123.000000,-0.007725,0.009568,45.939022,7.812500
2124.000000,-0.009251,0.009579,45.997616,7.812500
2125.000000,-0.009556,0.009603,46.042133,7.812500
2126.000000,-0.011997,0.009646,46.097843,7.812500
2127.000000,-0.011463,0.009665,46.154957,7.812500
2128.000000,-0.012684,0.009671,46.195511,7.812500
2129.000000,-0.010700,0.009688,46.215153,7.812500
2130.000000,-0.007954,0.009692,46.216320,7.812500
2131.000000,-0.010472,0.009719,46.205162,7.812500
2132.000000,-0.010014,0.009728,46.211697,7.812500
2133.000000,-0.010319,0.009728,46.237892,7.812500
2134.000000,-0.009174,0.009693,46.248947,7.812500
2135.000000,-0.009174,0.009647,46.227165,7.812500
2136.000000,-0.009403,0.009634,46.191288,7.812500
2137.000000,-0.010090,0.009636,46.112888,7.812500
2138.000000,-0.008869,0.009638,46.050751,7.812500
2139.000000,-0.008412,0.009629,45.985901,7.812500
2140.000000,-0.009861,0.009615,45.904320,7.812500
2141.000000,-0.009632,0.009598,45.811703,7.812500
2142.000000,-0.008869,0.009578,45.718082,7.812500
2143.000000,-0.006123,0.009522,45.620533,7.812500
2144.000000,-0.008488,0.009508,45.509979,7.812500
2145.000000,-0.009709,0.009476,45.399475,7.812500
2146.000000,-0.009480,0.009457,45.278286,7.812500
2147.000000,-0.007649,0.009413,45.153126,7.812500
2148.000000,-0.010166,0.009394,45.026443,7.812500
2149.000000,-0.009556,0.009379,44.893234,7.812500
2150.000000,-0.007038,0.009370,44.725960,7.812500
2151.000000,-0.006352,0.009354,44.569592,7.812500
2152.000000,-0.008793,0.009353,44.430080,7.812500
2153.000000,-0.010700,0.009324,44.273640,7.812500
2154.000000,-0.012379,0.009315,44.114765,7.812500
2155.000000,-0.011387,0.009309,43.945713,7.812500
2156.000000,-0.009098,0.009275,43.759041,7.812500
2157.000000,-0.012837,0.009307,43.570068,7.812500
2158.000000,-0.008412,0.009302,43.381638,7.812500
2159.000000,-0.009098,0.009311,43.201298,7.812500
2160.000000,-0.009174,0.009321,43.024601,7.812500
2161.000000,-0.008640,0.009321,42.850338,7.812500
2162.000000,-0.007725,0.009314,42.678802,7.812500
2163.000000,-0.008946,0.009323,42.504826,7.812500
2164.000000,-0.012226,0.009318,42.331543,7.812500
2165.000000,-0.010166,0.009331,42.160892,7.812500
2166.000000,-0.013523,0.009384,41.996864,7.812500
2167.000000,-0.011082,0.009393,41.836105,7.812500
2168.000000,-0.009632,0.009403,41.684349,7.812500
2169.000000,-0.010014,0.009426,41.533806,7.812500
2170.000000,-0.005894,0.009435,41.388138,7.812500
2171.000000,-0.002918,0.009432,41.247837,7.812500
2172.000000,-0.007191,0.009430,41.110958,7.812500
2173.000000,-0.008946,0.009441,40.980476,7.812500
2174.000000,-0.011997,0.009464,40.859032,7.812500
2175.000000,-0.011997,0.009492,40.744770,7.812500
2176.000000,-0.010472,0.009517,40.635380,7.812500
2177.000000,-0.006733,0.009523,40.529415,7.812500
2178.000000,-0.009709,0.009551,40.428986,7.812500
2179.000000,-0.010014,0.009580,40.330067,7.812500
2180.000000,-0.010243,0.009601,40.243439,7.812500
2181.000000,-0.008030,0.009579,40.163940,7.812500
2182.000000,-0.009403,0.009577,40.092876,7.812500
2183.000000,-0.010472,0.009609,40.031315,7.812500
2184.000000,-0.009709,0.009631,40.012646,7.812500
2185.000000,-0.011463,0.009662,39.994377,7.812500
2186.000000,-0.009480,0.009663,39.980152,7.812500
2187.000000,-0.009480,0.009629,39.982456,7.812500
2188.000000,-0.012455,0.009659,39.992050,7.812500
2189.000000,-0.012150,0.009693,40.000317,7.812500
2190.000000,-0.008640,0.009683,40.018143,7.812500
2191.000000,-0.007954,0.009654,40.029369,7.812500
2192.000000,-0.007877,0.009642,40.036385,7.812500
2193.000000,-0.009785,0.009619,40.047012,7.812500
2194.000000,-0.011463,0.009629,40.085739,7.812500
2195.000000,-0.011997,0.009618,40.129871,7.812500
2196.000000,-0.007877,0.009604,40.168411,7.812500
2197.000000,-0.008869,0.009624,40.213661,7.812500
2198.000000,-0.007954,0.009627,40.257713,7.812500
2199.000000,-0.007572,0.009598,40.300335,7.812500
2200.000000,-0.006466,0.009541,40.350639,7.812500
2201.000000,-0.010586,0.009535,40.405476,7.812500
2202.000000,-0.009136,0.009520,40.478909,7.812500
2203.000000,-0.007916,0.009527,40.549026,7.812500
2204.000000,-0.008068,0.009540,40.609051,7.812500
2205.000000,-0.009594,0.009553,40.669659,7.812500
2206.000000,-0.006161,0.009545,40.748554,7.812500
2207.000000,-0.008602,0.009546,40.833210,7.812500
2208.000000,-0.010815,0.009540,40.938705,7.812500
2209.000000,-0.008984,0.009545,41.044212,7.812500
2210.000000,-0.007839,0.009543,41.146408,7.812500
2211.000000,-0.007458,0.009527,41.250362,7.812500
2212.000000,-0.008907,0.009542,41.359619,7.812500
2213.000000,-0.009976,0.009578,41.466839,7.812500
2214.000000,-0.009365,0.009576,41.610573,7.812500
2215.000000,-0.008679,0.009574,41.770794,7.812500
2216.000000,-0.005550,0.009554,41.910637,7.812500
2217.000000,-0.006313,0.009513,42.044891,7.812500
2218.000000,-0.006390,0.009489,42.200989,7.812500
2219.000000,-0.010739,0.009484,42.356243,7.812500
2220.000000,-0.010967,0.009491,42.519447,7.812500
2221.000000,-0.009518,0.009482,42.700119,7.812500
2222.000000,-0.008679,0.009469,42.898685,7.812500
2223.000000,-0.009594,0.009486,43.089199,7.812500
2224.000000,-0.008221,0.009476,43.249401,7.812500
2225.000000,-0.006847,0.009453,43.423725,7.812500
2226.000000,-0.005169,0.009390,43.616150,7.812500
2227.000000,-0.006619,0.009344,43.818359,7.812500
2228.000000,-0.008602,0.009297,44.006439,7.812500
2229.000000,-0.012264,0.009316,44.197201,7.812500
2230.000000,-0.009289,0.009329,44.354603,7.812500
2231.000000,-0.009213,0.009315,44.519112,7.812500
2232.000000,-0.009976,0.009315,44.703156,7.812500
2233.000000,-0.011654,0.009331,44.913170,7.812500
2234.000000,-0.010739,0.009347,45.097080,7.812500
2235.000000,-0.008679,0.009343,45.270309,7.812500
2236.000000,-0.008068,0.009330,45.425583,7.812500
2237.000000,-0.007839,0.009309,45.575939,7.812500
2238.000000,-0.009365,0.009313,45.714622,7.812500
2239.000000,-0.010204,0.009331,45.865013,7.812500
2240.000000,-0.011730,0.009353,45.994347,7.812500
2241.000000,-0.012722,0.009390,46.139942,7.812500
2242.000000,-0.011730,0.009421,46.285908,7.812500
2243.000000,-0.012493,0.009484,46.432446,7.812500
2244.000000,-0.007458,0.009475,46.544952,7.812500
2245.000000,-0.009670,0.009475,46.633331,7.812500
2246.000000,-0.011730,0.009500,46.743607,7.812500
2247.000000,-0.010967,0.009532,46.833450,7.812500
2248.000000,-0.012036,0.009554,46.923832,7.812500
2249.000000,-0.011196,0.009572,46.994747,7.812500
2250.000000,-0.009670,0.009595,47.046520,7.812500
2251.000000,-0.007534,0.009603,47.111778,7.812500
2252.000000,-0.010815,0.009624,47.172588,7.812500
2253.000000,-0.012493,0.009646,47.219189,7.812500
2254.000000,-0.012875,0.009652,47.277241,7.812500
2255.000000,-0.010815,0.009646,47.336365,7.812500
2256.000000,-0.011349,0.009669,47.378571,7.812500
2257.000000,-0.010967,0.009646,47.399330,7.812500
2258.000000,-0.009899,0.009660,47.401123,7.812500
2259.000000,-0.010510,0.009675,47.390244,7.812500
2260.000000,-0.010433,0.009688,47.397175,7.812500
2261.000000,-0.008450,0.009686,47.423786,7.812500
2262.000000,-0.007000,0.009680,47.434669,7.812500
2263.000000,-0.008450,0.009676,47.412258,7.812500
2264.000000,-0.012722,0.009682,47.375591,7.812500
2265.000000,-0.010052,0.009681,47.295521,7.812500
2266.000000,-0.009823,0.009636,47.231804,7.812500
2267.000000,-0.010815,0.009633,47.165131,7.812500
2268.000000,-0.011501,0.009654,47.081345,7.812500
2269.000000,-0.007992,0.009635,46.986626,7.812500
2270.000000,-0.003796,0.009624,46.891178,7.812500
2271.000000,-0.008450,0.009657,46.791367,7.812500
2272.000000,-0.008526,0.009668,46.677689,7.812500
2273.000000,-0.009060,0.009669,46.563976,7.812500
2274.000000,-0.006542,0.009616,46.439388,7.812500
2275.000000,-0.010967,0.009604,46.311005,7.812500
2276.000000,-0.006924,0.009572,46.181187,7.812500
2277.000000,-0.006847,0.009573,46.045139,7.812500
2278.000000,-0.007382,0.009552,45.874596,7.812500
2279.000000,-0.009976,0.009552,45.714535,7.812500
2280.000000,-0.009976,0.009549,45.571548,7.812500
2281.000000,-0.008526,0.009553,45.411087,7.812500
2282.000000,-0.009060,0.009550,45.248070,7.812500
2283.000000,-0.007763,0.009524,45.074463,7.812500
2284.000000,-0.006771,0.009498,44.883617,7.812500
2285.000000,-0.007000,0.009455,44.690449,7.812500
2286.000000,-0.009365,0.009454,44.497746,7.812500
2287.000000,-0.007610,0.009437,44.313107,7.812500
2288.000000,-0.009976,0.009407,44.132038,7.812500
2289.000000,-0.011654,0.009401,43.953461,7.812500
2290.000000,-0.008984,0.009404,43.777714,7.812500
2291.000000,-0.009289,0.009417,43.599674,7.812500
2292.000000,-0.010204,0.009439,43.422493,7.812500
2293.000000,-0.012036,0.009465,43.247875,7.812500
2294.000000,-0.012417,0.009477,43.079933,7.812500
2295.000000,-0.010433,0.009458,42.915417,7.812500
2296.000000,-0.009670,0.009475,42.760094,7.812500
2297.000000,-0.008068,0.009468,42.606037,7.812500
2298.000000,-0.010433,0.009492,42.457172,7.812500
2299.000000,-0.010891,0.009524,42.313808,7.812500
2300.000000,-0.014248,0.009608,42.173916,7.812500
2301.000000,-0.014630,0.009661,42.040546,7.812500
2302.000000,-0.014401,0.009725,41.916382,7.812500
2303.000000,-0.012188,0.009769,41.799675,7.812500
2304.000000,-0.010204,0.009789,41.688095,7.812500
2305.000000,-0.009670,0.009790,41.580128,7.812500
2306.000000,-0.011501,0.009838,41.477783,7.812500
2307.000000,-0.011959,0.009873,41.377068,7.812500
2308.000000,-0.010739,0.009872,41.288788,7.812500
2309.000000,-0.012799,0.009914,41.207893,7.812500
2310.000000,-0.013027,0.009969,41.135597,7.812500
2311.000000,-0.011501,0.010007,41.073200,7.812500
2312.000000,-0.010662,0.010024,41.054672,7.812500
2313.000000,-0.009365,0.010018,41.036613,7.812500
2314.000000,-0.008984,0.010015,41.022507,7.812500
2315.000000,-0.008526,0.010013,41.025261,7.812500
2316.000000,-0.009289,0.010041,41.035625,7.812500
2317.000000,-0.010204,0.010073,41.044846,7.812500
2318.000000,-0.007916,0.010084,41.063869,7.812500
2319.000000,-0.008450,0.010062,41.076271,7.812500
2320.000000,-0.008221,0.010036,41.084530,7.812500
2321.000000,-0.008602,0.010028,41.096504,7.812500
2322.000000,-0.007076,0.010015,41.137108,7.812500
2323.000000,-0.005932,0.009987,41.183266,7.812500
2324.000000,-0.006390,0.009973,41.223717,7.812500
2325.000000,-0.007000,0.009974,41.271027,7.812500
2326.000000,-0.007610,0.009990,41.317352,7.812500
2327.000000,-0.008068,0.010000,41.362175,7.812500
2328.000000,-0.007000,0.009988,41.415260,7.812500
2329.000000,-0.006695,0.009935,41.472702,7.812500
2330.000000,-0.005856,0.009909,41.549252,7.812500
2331.000000,-0.006771,0.009889,41.622562,7.812500
2332.000000,-0.007153,0.009865,41.685471,7.812500
2333.000000,-0.008068,0.009829,41.748917,7.812500
2334.000000,-0.009823,0.009819,41.830853,7.812500
2335.000000,-0.008755,0.009820,41.918583,7.812500
2336.000000,-0.006466,0.009808,42.027821,7.812500
2337.000000,-0.006695,0.009799,42.137119,7.812500
2338.000000,-0.007305,0.009782,42.243176,7.812500
2339.000000,-0.008450,0.009765,42.350910,7.812500
2340.000000,-0.009136,0.009737,42.463932,7.812500
2341.000000,-0.010586,0.009712,42.574738,7.812500
2342.000000,-0.007992,0.009674,42.722645,7.812500
2343.000000,-0.009747,0.009642,42.887337,7.812500
2344.000000,-0.009518,0.009660,43.031395,7.812500
2345.000000,-0.009594,0.009659,43.169754,7.812500
2346.000000,-0.007305,0.009616,43.330193,7.812500
2347.000000,-0.010815,0.009614,43.489586,7.812500
2348.000000,-0.011349,0.009606,43.656952,7.812500
2349.000000,-0.007687,0.009571,43.841972,7.812500
2350.000000,-0.008145,0.009557,44.045200,7.812500
2351.000000,-0.007916,0.009560,44.240093,7.812500
2352.000000,-0.011807,0.009572,44.403931,7.812500
2353.000000,-0.011654,0.009561,44.581974,7.812500
2354.000000,-0.012341,0.009554,44.778259,7.812500
2355.000000,-0.011578,0.009563,44.984310,7.812500
2356.000000,-0.013180,0.009586,45.175804,7.812500
2357.000000,-0.011196,0.009589,45.369740,7.812500
2358.000000,-0.010586,0.009596,45.529507,7.812500
2359.000000,-0.011578,0.009609,45.696087,7.812500
2360.000000,-0.012875,0.009638,45.882668,7.812500
2361.000000,-0.009899,0.009652,46.095528,7.812500
2362.000000,-0.009899,0.009677,46.281528,7.812500
2363.000000,-0.010586,0.009698,46.456280,7.812500
2364.000000,-0.015469,0.009738,46.612522,7.812500
2365.000000,-0.013714,0.009783,46.763477,7.812500
2366.000000,-0.013561,0.009827,46.902294,7.812500
2367.000000,-0.013714,0.009864,47.052876,7.812500
2368.000000,-0.011273,0.009861,47.181767,7.812500
2369.000000,-0.015774,0.009954,47.326794,7.812500
2370.000000,-0.012417,0.010024,47.471901,7.812500
2371.000000,-0.003338,0.009994,47.617294,7.812500
2372.000000,-0.008984,0.009998,47.727829,7.812500
2373.000000,-0.010052,0.010008,47.813522,7.812500
2374.000000,-0.011501,0.010052,47.921059,7.812500
2375.000000,-0.010052,0.010043,48.007568,7.812500
2376.000000,-0.010891,0.010078,48.094318,7.812500
2377.000000,-0.010739,0.010112,48.160358,7.812500
2378.000000,-0.008679,0.010122,48.207443,7.812500
2379.000000,-0.007382,0.010100,48.268875,7.812500
2380.000000,-0.009518,0.010095,48.324829,7.812500
2381.000000,-0.007687,0.010089,48.366257,7.812500
2382.000000,-0.005550,0.010063,48.418755,7.812500
2383.000000,-0.006466,0.010054,48.472366,7.812500
2384.000000,-0.006542,0.010052,48.508457,7.812500
2385.000000,-0.005474,0.010043,48.522629,7.812500
2386.000000,-0.007839,0.010030,48.517490,7.812500
2387.000000,-0.007382,0.010028,48.499256,7.812500
2388.000000,-0.008679,0.010016,48.498814,7.812500
2389.000000,-0.008145,0.009981,48.518196,7.812500
2390.000000,-0.006924,0.009965,48.521545,7.812500
2391.000000,-0.006161,0.009941,48.490856,7.812500
2392.000000,-0.008373,0.009923,48.445419,7.812500
2393.000000,-0.008907,0.009890,48.355858,7.812500
2394.000000,-0.007839,0.009843,48.283016,7.812500
2395.000000,-0.007839,0.009819,48.206860,7.812500
2396.000000,-0.009060,0.009813,48.113461,7.812500
2397.000000,-0.005703,0.009797,48.008854,7.812500
2398.000000,-0.008831,0.009781,47.903446,7.812500
2399.000000,-0.008984,0.009762,47.793480,7.812500
2400.000000,-0.008640,0.009696,47.669762,7.812500
2401.000000,-0.009174,0.009629,47.546001,7.812500
2402.000000,-0.011616,0.009591,47.411297,7.812500
2403.000000,-0.008793,0.009554,47.272869,7.812500
2404.000000,-0.009937,0.009551,47.133015,7.812500
2405.000000,-0.010166,0.009556,46.986423,7.812500
2406.000000,-0.006580,0.009509,46.805748,7.812500
2407.000000,-0.007496,0.009464,46.636250,7.812500
2408.000000,-0.009098,0.009446,46.483650,7.812500
2409.000000,-0.010014,0.009413,46.313419,7.812500
2410.000000,-0.008946,0.009365,46.141171,7.812500
2411.000000,-0.007191,0.009322,45.958221,7.812500
2412.000000,-0.009632,0.009311,45.757835,7.812500
2413.000000,-0.011616,0.009336,45.555401,7.812500
2414.000000,-0.009632,0.009342,45.353462,7.812500
2415.000000,-0.010014,0.009357,45.160076,7.812500
2416.000000,-0.009251,0.009357,44.970367,7.812500
2417.000000,-0.008793,0.009342,44.783237,7.812500
2418.000000,-0.007496,0.009339,44.598778,7.812500
2419.000000,-0.010243,0.009357,44.412079,7.812500
2420.000000,-0.009937,0.009373,44.227211,7.812500
2421.000000,-0.007725,0.009366,44.044884,7.812500
