emgT,emg,rms,mnf,mdf
0.000000,-0.076238,0.000000,0.000000,0.000000
1.000000,-0.076772,0.007624,0.000000,0.000000
2.000000,-0.074407,0.010819,0.000000,0.000000
3.000000,-0.069295,0.013131,0.000000,0.000000
4.000000,-0.067693,0.014847,0.000000,0.000000
5.000000,-0.065099,0.016318,0.000000,0.000000
6.000000,-0.065175,0.017568,0.000000,0.000000
7.000000,-0.065862,0.018738,0.000000,0.000000
8.000000,-0.069600,0.019862,0.000000,0.000000
9.000000,-0.074178,0.021046,0.000000,0.000000
10.000000,-0.075933,0.022315,0.000000,0.000000
11.000000,-0.072423,0.023572,0.000000,0.000000
12.000000,-0.069600,0.024659,0.000000,0.000000
13.000000,-0.069753,0.025623,0.000000,0.000000
14.000000,-0.065328,0.026555,0.000000,0.000000
15.000000,-0.060903,0.027347,0.000000,0.000000
16.000000,-0.064717,0.028017,0.000000,0.000000
17.000000,-0.063191,0.028755,0.000000,0.000000
18.000000,-0.067006,0.029441,0.000000,0.000000
19.000000,-0.067540,0.030194,0.000000,0.000000
20.000000,-0.068456,0.030940,0.000000,0.000000
21.000000,-0.069600,0.031688,0.000000,0.000000
22.000000,-0.067617,0.032443,0.000000,0.000000
23.000000,-0.063802,0.033141,0.000000,0.000000
24.000000,-0.062123,0.033749,0.000000,0.000000
25.000000,-0.056706,0.034316,0.000000,0.000000
26.000000,-0.058690,0.034781,0.000000,0.000000
27.000000,-0.059911,0.035273,0.000000,0.000000
28.000000,-0.061818,0.035778,0.000000,0.000000
29.000000,-0.063344,0.036308,0.000000,0.000000
30.000000,-0.063420,0.036857,0.000000,0.000000
31.000000,-0.060903,0.037399,0.000000,0.000000
32.000000,-0.061742,0.037891,0.000000,0.000000
33.000000,-0.057317,0.038391,0.000000,0.000000
34.000000,-0.055867,0.038816,0.000000,0.000000
35.000000,-0.054646,0.039216,0.000000,0.000000
36.000000,-0.056859,0.039595,0.000000,0.000000
37.000000,-0.054875,0.040001,0.000000,0.000000
38.000000,-0.055638,0.040376,0.000000,0.000000
39.000000,-0.055257,0.040758,0.000000,0.000000
40.000000,-0.054799,0.041130,0.000000,0.000000
41.000000,-0.056859,0.041494,0.000000,0.000000
42.000000,-0.056554,0.041882,0.000000,0.000000
43.000000,-0.054341,0.042262,0.000000,0.000000
44.000000,-0.051823,0.042610,0.000000,0.000000
45.000000,-0.049382,0.042924,0.000000,0.000000
46.000000,-0.048543,0.043207,0.000000,0.000000
47.000000,-0.050984,0.043479,0.000000,0.000000
48.000000,-0.051976,0.043777,0.000000,0.000000
49.000000,-0.051671,0.044084,0.000000,0.000000
50.000000,-0.056172,0.044386,0.000000,0.000000
51.000000,-0.051900,0.044740,0.000000,0.000000
52.000000,-0.050832,0.045040,0.000000,0.000000
53.000000,-0.047856,0.045326,0.000000,0.000000
54.000000,-0.039006,0.045578,0.000000,0.000000
55.000000,-0.046864,0.045744,0.000000,0.000000
56.000000,-0.054417,0.045984,0.000000,0.000000
57.000000,-0.045491,0.046305,0.000000,0.000000
58.000000,-0.049153,0.046528,0.000000,0.000000
59.000000,-0.045949,0.046787,0.000000,0.000000
60.000000,-0.046635,0.047012,0.000000,0.000000
61.000000,-0.046559,0.047242,0.000000,0.000000
62.000000,-0.047017,0.047471,0.000000,0.000000
63.000000,-0.044575,0.047703,0.000000,0.000000
64.000000,-0.045491,0.047911,0.000000,0.000000
65.000000,-0.042668,0.048127,0.000000,0.000000
66.000000,-0.041218,0.048316,0.000000,0.000000
67.000000,-0.042515,0.048491,0.000000,0.000000
68.000000,-0.041905,0.048677,0.000000,0.000000
69.000000,-0.043355,0.048857,0.000000,0.000000
70.000000,-0.045567,0.049049,0.000000,0.000000
71.000000,-0.041447,0.049260,0.000000,0.000000
72.000000,-0.041905,0.049434,0.000000,0.000000
73.000000,-0.040684,0.049612,0.000000,0.000000
74.000000,-0.038853,0.049778,0.000000,0.000000
75.000000,-0.037327,0.049930,0.000000,0.000000
76.000000,-0.036946,0.050069,0.000000,0.000000
77.000000,-0.041066,0.050205,0.000000,0.000000
78.000000,-0.040913,0.050373,0.000000,0.000000
79.000000,-0.037327,0.050539,0.000000,0.000000
80.000000,-0.036259,0.050676,0.000000,0.000000
81.000000,-0.036412,0.050806,1.307502,0.000000
82.000000,-0.035573,0.050936,1.319114,0.000000
83.000000,-0.035039,0.051060,1.337718,0.000000
84.000000,-0.035191,0.051180,1.365592,0.000000
85.000000,-0.034047,0.051301,1.402858,0.000000
86.000000,-0.035649,0.051414,1.450917,0.000000
87.000000,-0.034199,0.051537,1.508839,0.000000
88.000000,-0.032368,0.051651,1.576096,0.000000
89.000000,-0.031682,0.051752,1.649270,0.000000
90.000000,-0.036946,0.051849,1.726063,0.000000
91.000000,-0.032292,0.051980,1.808448,0.000000
92.000000,-0.030919,0.052081,1.902668,0.000000
93.000000,-0.032597,0.052172,2.008718,0.000000
94.000000,-0.032139,0.052274,2.122869,0.000000
95.000000,-0.028019,0.052373,2.252443,0.000000
96.000000,-0.028401,0.052448,2.398960,0.000000
97.000000,-0.028248,0.052525,2.548026,0.000000
98.000000,-0.030919,0.052600,2.708854,0.000000
99.000000,-0.030308,0.052691,2.869988,0.000000
100.000000,-0.050832,0.052778,3.037275,0.000000
101.000000,-0.051900,0.052472,3.209265,0.000000
102.000000,-0.048619,0.052166,3.384736,0.000000
103.000000,-0.047093,0.051861,3.571043,0.000000
104.000000,-0.046483,0.051611,3.773265,0.000000
105.000000,-0.040913,0.051376,3.986180,0.000000
106.000000,-0.041676,0.051126,4.220775,0.000000
107.000000,-0.046559,0.050880,4.455878,0.000000
108.000000,-0.047322,0.050666,4.692613,0.000000
109.000000,-0.045491,0.050408,4.927788,0.000000
110.000000,-0.047017,0.050066,5.161610,0.000000
111.000000,-0.045872,0.049710,5.398121,3.906250
112.000000,-0.041905,0.049393,5.645784,3.906250
113.000000,-0.042287,0.049080,5.892731,3.906250
114.000000,-0.039387,0.048765,6.157236,3.906250
115.000000,-0.040150,0.048486,6.428730,3.906250
116.000000,-0.038243,0.048269,6.706071,3.906250
117.000000,-0.037098,0.047986,6.975789,3.906250
118.000000,-0.041218,0.047712,7.253171,3.906250
119.000000,-0.039540,0.047419,7.527220,3.906250
120.000000,-0.040532,0.047102,7.801834,3.906250
121.000000,-0.043050,0.046778,8.076861,3.906250
122.000000,-0.039769,0.046457,8.341772,3.906250
123.000000,-0.038319,0.046134,8.605538,3.906250
124.000000,-0.036412,0.045851,8.875482,3.906250
125.000000,-0.030842,0.045574,9.152538,3.906250
126.000000,-0.032673,0.045325,9.436098,3.906250
127.000000,-0.035039,0.045062,9.719312,3.906250
128.000000,-0.039464,0.044799,9.988438,3.906250
129.000000,-0.037556,0.044546,10.249067,3.906250
130.000000,-0.041600,0.044253,10.506212,3.906250
131.000000,-0.035725,0.043993,10.740349,3.906250
132.000000,-0.034428,0.043716,10.986588,3.906250
133.000000,-0.039769,0.043414,11.231743,3.906250
134.000000,-0.036946,0.043217,11.483025,3.906250
135.000000,-0.033970,0.043014,11.762841,3.906250
136.000000,-0.031834,0.042800,12.005734,3.906250
137.000000,-0.031376,0.042540,12.213668,3.906250
138.000000,-0.033589,0.042301,12.449550,3.906250
139.000000,-0.037175,0.042068,12.665403,3.906250
140.000000,-0.038472,0.041869,12.886825,3.906250
141.000000,-0.038853,0.041687,13.099306,3.906250
142.000000,-0.036183,0.041479,13.305670,3.906250
143.000000,-0.034428,0.041251,13.504082,3.906250
144.000000,-0.033818,0.041036,13.704544,3.906250
145.000000,-0.029850,0.040848,13.895436,3.906250
146.000000,-0.028859,0.040658,14.089239,3.906250
147.000000,-0.029850,0.040470,14.281064,3.906250
148.000000,-0.030537,0.040259,14.462085,3.906250
149.000000,-0.033360,0.040038,14.638513,3.906250
150.000000,-0.033360,0.039843,14.804166,3.906250
151.000000,-0.035420,0.039586,14.957262,3.906250
152.000000,-0.034352,0.039404,15.116417,3.906250
153.000000,-0.026341,0.039226,15.268182,3.906250
154.000000,-0.025654,0.039022,15.417315,3.906250
155.000000,-0.024815,0.038911,15.565277,3.906250
156.000000,-0.028401,0.038707,15.711021,3.906250
157.000000,-0.025349,0.038428,15.851530,3.906250
158.000000,-0.029927,0.038242,15.976152,3.906250
159.000000,-0.031224,0.038042,16.095846,3.906250
160.000000,-0.029164,0.037893,16.218378,3.906250
161.000000,-0.028553,0.037718,16.337662,3.906250
162.000000,-0.028477,0.037538,16.451088,3.906250
163.000000,-0.026646,0.037351,16.560827,3.906250
164.000000,-0.026951,0.037180,16.666265,3.906250
165.000000,-0.024891,0.036999,16.766182,3.906250
166.000000,-0.023213,0.036836,16.863054,3.906250
167.000000,-0.022145,0.036678,16.952166,3.906250
168.000000,-0.026799,0.036498,17.038940,7.812500
169.000000,-0.028859,0.036356,17.123789,7.812500
170.000000,-0.028248,0.036212,17.204792,7.812500
171.000000,-0.029927,0.036035,17.273766,7.812500
172.000000,-0.028706,0.035920,17.344952,7.812500
173.000000,-0.025654,0.035790,17.413437,7.812500
174.000000,-0.019245,0.035651,17.475548,7.812500
175.000000,-0.018864,0.035491,17.534109,7.812500
176.000000,-0.020619,0.035344,17.592852,7.812500
177.000000,-0.021763,0.035211,17.646818,7.812500
178.000000,-0.025731,0.035038,17.696699,7.812500
179.000000,-0.022755,0.034894,17.740381,7.812500
180.000000,-0.024815,0.034768,17.780922,7.812500
181.000000,-0.023594,0.034667,17.804466,7.812500
182.000000,-0.025196,0.034556,17.826504,7.812500
183.000000,-0.024891,0.034465,17.849670,7.812500
184.000000,-0.018177,0.034376,17.872612,7.812500
185.000000,-0.014973,0.034244,17.894745,7.812500
186.000000,-0.012074,0.034107,17.917923,7.812500
187.000000,-0.016957,0.033942,17.939222,7.812500
188.000000,-0.021382,0.033812,17.957750,7.812500
189.000000,-0.023136,0.033724,17.975248,7.812500
190.000000,-0.025959,0.033655,17.992323,7.812500
191.000000,-0.023747,0.033552,18.008369,7.812500
192.000000,-0.021153,0.033481,18.023842,7.812500
193.000000,-0.020314,0.033405,18.038654,7.812500
194.000000,-0.012379,0.033307,18.052427,7.812500
195.000000,-0.008030,0.033175,18.064970,7.812500
196.000000,-0.022526,0.033066,18.076429,7.812500
197.000000,-0.019322,0.033021,18.086449,7.812500
198.000000,-0.020085,0.032956,18.094980,7.812500
199.000000,-0.016270,0.032872,18.103497,7.812500
200.000000,-0.027523,0.032773,18.110634,7.812500
201.000000,-0.031949,0.032493,18.117262,7.812500
202.000000,-0.028668,0.032235,18.124258,7.812500
203.000000,-0.024014,0.031995,18.129156,7.812500
204.000000,-0.029126,0.031737,18.132523,7.812500
205.000000,-0.029736,0.031530,18.133917,7.812500
206.000000,-0.024701,0.031404,18.130743,7.812500
207.000000,-0.025006,0.031224,18.127354,7.812500
208.000000,-0.024548,0.030976,18.124474,7.812500
209.000000,-0.023480,0.030711,18.122635,7.812500
210.000000,-0.024014,0.030463,18.115662,7.812500
211.000000,-0.025006,0.030193,18.108877,7.812500
212.000000,-0.031186,0.029947,18.094357,7.812500
213.000000,-0.027981,0.029816,18.075697,7.812500
214.000000,-0.025006,0.029647,18.059938,7.812500
215.000000,-0.024548,0.029491,18.038736,7.812500
216.000000,-0.022793,0.029319,18.011417,7.812500
217.000000,-0.022030,0.029158,17.977560,7.812500
218.000000,-0.026913,0.029005,17.938250,7.812500
219.000000,-0.025158,0.028836,17.897409,7.812500
220.000000,-0.026303,0.028674,17.859240,7.812500
221.000000,-0.025387,0.028508,17.821274,7.812500
222.000000,-0.027371,0.028295,17.781269,7.812500
223.000000,-0.026303,0.028148,17.737543,7.812500
224.000000,-0.025921,0.028009,17.691610,7.812500
225.000000,-0.023022,0.027892,17.640446,7.812500
226.000000,-0.022641,0.027817,17.582037,7.812500
227.000000,-0.025082,0.027717,17.517162,7.812500
228.000000,-0.024624,0.027609,17.450880,7.812500
229.000000,-0.024929,0.027436,17.382555,7.812500
230.000000,-0.024929,0.027292,17.315588,7.812500
231.000000,-0.025998,0.027088,17.248047,7.812500
232.000000,-0.024243,0.026977,17.185320,7.812500
233.000000,-0.023175,0.026866,17.120756,7.812500
234.000000,-0.021420,0.026671,17.045702,7.812500
235.000000,-0.018597,0.026500,16.966211,7.812500
236.000000,-0.019360,0.026347,16.882654,7.812500
237.000000,-0.019741,0.026226,16.802507,7.812500
238.000000,-0.021954,0.026112,16.713970,7.812500
239.000000,-0.023251,0.025988,16.632889,7.812500
240.000000,-0.021191,0.025826,16.556316,7.812500
241.000000,-0.019284,0.025625,16.474411,7.812500
242.000000,-0.020123,0.025402,16.396172,7.812500
243.000000,-0.018902,0.025224,16.319643,7.812500
244.000000,-0.019436,0.025059,16.241369,7.812500
245.000000,-0.017300,0.024906,16.161562,7.812500
246.000000,-0.017529,0.024787,16.080881,3.906250
247.000000,-0.018139,0.024681,15.996817,3.906250
248.000000,-0.019436,0.024566,15.912293,3.906250
249.000000,-0.017987,0.024453,15.839524,3.906250
250.000000,-0.021267,0.024291,15.770065,3.906250
251.000000,-0.020733,0.024155,15.701865,3.906250
252.000000,-0.021267,0.023984,15.642771,3.906250
253.000000,-0.021496,0.023831,15.587629,3.906250
254.000000,-0.019818,0.023783,15.532900,3.906250
255.000000,-0.018368,0.023727,15.469433,3.906250
256.000000,-0.016766,0.023668,15.405191,3.906250
257.000000,-0.015850,0.023557,15.347120,3.906250
258.000000,-0.017758,0.023474,15.296216,3.906250
259.000000,-0.022183,0.023350,15.251045,3.906250
260.000000,-0.024319,0.023246,15.211134,3.906250
261.000000,-0.024014,0.023190,15.182363,3.906250
262.000000,-0.019207,0.023139,15.161247,3.906250
263.000000,-0.018521,0.023043,15.163926,3.906250
264.000000,-0.013790,0.022963,15.158714,3.906250
265.000000,-0.014096,0.022846,15.132506,3.906250
266.000000,-0.018444,0.022754,15.120907,3.906250
267.000000,-0.015087,0.022710,15.103349,3.906250
268.000000,-0.017681,0.022652,15.107818,3.906250
269.000000,-0.017758,0.022563,15.126585,3.906250
270.000000,-0.022641,0.022448,15.155366,3.906250
271.000000,-0.020047,0.022384,15.195266,3.906250
272.000000,-0.015774,0.022273,15.241070,3.906250
273.000000,-0.014324,0.022144,15.286112,3.906250
274.000000,-0.009289,0.022041,15.340421,3.906250
275.000000,-0.010052,0.021977,15.387574,3.906250
276.000000,-0.016232,0.021919,15.429882,3.906250
277.000000,-0.017910,0.021882,15.506810,3.906250
278.000000,-0.017453,0.021847,15.580070,3.906250
279.000000,-0.016003,0.021765,15.655667,3.906250
280.000000,-0.017147,0.021705,15.735823,3.906250
281.000000,-0.016232,0.021631,15.839837,3.906250
282.000000,-0.018368,0.021563,15.957083,3.906250
283.000000,-0.015240,0.021494,16.074209,3.906250
284.000000,-0.015621,0.021403,16.188099,3.906250
285.000000,-0.012646,0.021383,16.313286,3.906250
286.000000,-0.012417,0.021368,16.433838,3.906250
287.000000,-0.012875,0.021370,16.547310,3.906250
288.000000,-0.018902,0.021342,16.667822,3.906250
289.000000,-0.020962,0.021318,16.789463,3.906250
290.000000,-0.020352,0.021296,16.908949,3.906250
291.000000,-0.016842,0.021235,17.029873,3.906250
292.000000,-0.014096,0.021169,17.151892,3.906250
293.000000,-0.016690,0.021110,17.280636,3.906250
294.000000,-0.011196,0.021078,17.404192,3.906250
295.000000,-0.010662,0.021071,17.519022,3.906250
296.000000,-0.013638,0.021083,17.632622,3.906250
297.000000,-0.015011,0.021007,17.743500,3.906250
298.000000,-0.017071,0.020971,17.851099,3.906250
299.000000,-0.017071,0.020945,17.954422,3.906250
300.000000,-0.019360,0.020951,18.057543,3.906250
301.000000,-0.021115,0.020859,18.159206,7.812500
302.000000,-0.019360,0.020721,18.253708,7.812500
303.000000,-0.014324,0.020613,18.346075,7.812500
304.000000,-0.018292,0.020523,18.436514,7.812500
305.000000,-0.018215,0.020397,18.521059,7.812500
306.000000,-0.013409,0.020261,18.598196,7.812500
307.000000,-0.012570,0.020155,18.668011,7.812500
308.000000,-0.014935,0.020039,18.735182,7.812500
309.000000,-0.018292,0.019944,18.784168,7.812500
310.000000,-0.021725,0.019889,18.829947,7.812500
311.000000,-0.020428,0.019863,18.874794,7.812500
312.000000,-0.015393,0.019810,18.917938,7.812500
313.000000,-0.012493,0.019624,18.957331,7.812500
314.000000,-0.011349,0.019464,18.995283,7.812500
315.000000,-0.012722,0.019336,19.028793,7.812500
316.000000,-0.012493,0.019221,19.056789,7.812500
317.000000,-0.011654,0.019127,19.082371,7.812500
318.000000,-0.012264,0.019035,19.105934,7.812500
319.000000,-0.010586,0.018884,19.127237,7.812500
320.000000,-0.011501,0.018745,19.146305,7.812500
321.000000,-0.014935,0.018595,19.162399,7.812500
322.000000,-0.018826,0.018482,19.175385,7.812500
323.000000,-0.016155,0.018375,19.185499,7.812500
324.000000,-0.010815,0.018257,19.192703,7.812500
325.000000,-0.005550,0.018104,19.196796,7.812500
326.000000,-0.007916,0.017966,19.197744,7.812500
327.000000,-0.009518,0.017840,19.197104,7.812500
328.000000,-0.014248,0.017689,19.193476,7.812500
329.000000,-0.013714,0.017574,19.187599,7.812500
330.000000,-0.014019,0.017451,19.180655,7.812500
331.000000,-0.016232,0.017328,19.169483,7.812500
332.000000,-0.014324,0.017209,19.155170,7.812500
333.000000,-0.016613,0.017097,19.137100,7.812500
334.000000,-0.016842,0.017021,19.112768,7.812500
335.000000,-0.013485,0.016969,19.087101,7.812500
336.000000,-0.014858,0.016921,19.060919,7.812500
337.000000,-0.013333,0.016875,19.061573,7.812500
338.000000,-0.017224,0.016812,19.057926,7.812500
339.000000,-0.020275,0.016757,19.053438,7.812500
340.000000,-0.021115,0.016719,19.038765,7.812500
341.000000,-0.019741,0.016718,19.019373,7.812500
342.000000,-0.021038,0.016723,19.002697,7.812500
343.000000,-0.021572,0.016734,18.982765,7.812500
344.000000,-0.021649,0.016767,18.957834,7.812500
345.000000,-0.020428,0.016794,18.929655,7.812500
346.000000,-0.013409,0.016829,18.897936,7.812500
347.000000,-0.015545,0.016791,18.864521,7.812500
348.000000,-0.019818,0.016765,18.834324,7.812500
349.000000,-0.019360,0.016769,18.803513,7.812500
350.000000,-0.021344,0.016784,18.771442,7.812500
351.000000,-0.022259,0.016785,18.733957,7.812500
352.000000,-0.021878,0.016805,18.694611,7.812500
353.000000,-0.019741,0.016813,18.653088,7.812500
354.000000,-0.015621,0.016791,18.605183,7.812500
355.000000,-0.012570,0.016747,18.553986,7.812500
356.000000,-0.014935,0.016693,18.502087,7.812500
357.000000,-0.011578,0.016676,18.447643,7.812500
358.000000,-0.010662,0.016641,18.395269,7.812500
359.000000,-0.012036,0.016580,18.342815,7.812500
360.000000,-0.020504,0.016475,18.295490,7.812500
361.000000,-0.016995,0.016423,18.246569,7.812500
362.000000,-0.015011,0.016335,18.186979,7.812500
363.000000,-0.013714,0.016291,18.123779,7.812500
364.000000,-0.013561,0.016244,18.058359,7.812500
365.000000,-0.010052,0.016242,17.997549,7.812500
366.000000,-0.007076,0.016211,17.930098,7.812500
367.000000,-0.007458,0.016122,17.870962,7.812500
368.000000,-0.012493,0.016068,17.816458,7.812500
369.000000,-0.012570,0.016020,17.756159,7.812500
370.000000,-0.016155,0.015970,17.698851,7.812500
371.000000,-0.014553,0.015891,17.643724,7.812500
372.000000,-0.013638,0.015831,17.587898,7.812500
373.000000,-0.015545,0.015812,17.532124,7.812500
374.000000,-0.012722,0.015823,17.474894,3.906250
375.000000,-0.009747,0.015847,17.415928,3.906250
376.000000,-0.009823,0.015845,17.356770,3.906250
377.000000,-0.009136,0.015792,17.309156,3.906250
378.000000,-0.017224,0.015717,17.265236,3.906250
379.000000,-0.018215,0.015714,17.222145,3.906250
380.000000,-0.013333,0.015739,17.187954,3.906250
381.000000,-0.012493,0.015702,17.156675,3.906250
382.000000,-0.015698,0.015667,17.124607,3.906250
383.000000,-0.018444,0.015638,17.083162,3.906250
384.000000,-0.015087,0.015673,17.042009,3.906250
385.000000,-0.010662,0.015668,17.005939,3.906250
386.000000,-0.008068,0.015653,16.976515,3.906250
387.000000,-0.012264,0.015624,16.954321,3.906250
388.000000,-0.015087,0.015619,16.935806,3.906250
389.000000,-0.011654,0.015578,16.927128,3.906250
390.000000,-0.015469,0.015480,16.923855,3.906250
391.000000,-0.014172,0.015423,16.941582,3.906250
392.000000,-0.013638,0.015397,16.951530,3.906250
393.000000,-0.013561,0.015392,16.940517,3.906250
394.000000,-0.011120,0.015362,16.941866,3.906250
395.000000,-0.009670,0.015361,16.936127,3.906250
396.000000,-0.008907,0.015355,16.950953,3.906250
397.000000,-0.007229,0.015320,16.979364,3.906250
398.000000,-0.010586,0.015263,17.016703,3.906250
399.000000,-0.011654,0.015204,17.063908,3.906250
400.000000,-0.006085,0.015153,17.115219,3.906250
401.000000,-0.005169,0.015041,17.163607,3.906250
402.000000,-0.008373,0.014901,17.218445,3.906250
403.000000,-0.005169,0.014799,17.262232,3.906250
404.000000,-0.005474,0.014738,17.299627,3.906250
405.000000,-0.002346,0.014635,17.373426,3.906250
406.000000,-0.003338,0.014523,17.442829,3.906250
407.000000,-0.003872,0.014464,17.512716,3.906250
408.000000,-0.006313,0.014415,17.584362,3.906250
409.000000,-0.003643,0.014351,17.678967,3.906250
410.000000,-0.002956,0.014239,17.785940,3.906250
411.000000,-0.008984,0.014075,17.890671,3.906250
412.000000,-0.008450,0.013955,17.989536,3.906250
413.000000,-0.005932,0.013896,18.099417,3.906250
414.000000,-0.001202,0.013852,18.203363,3.906250
415.000000,-0.001354,0.013806,18.298418,3.906250
416.000000,-0.003796,0.013748,18.399879,3.906250
417.000000,-0.002346,0.013696,18.500984,3.906250
418.000000,-0.002728,0.013649,18.599297,3.906250
419.000000,-0.003796,0.013596,18.697248,3.906250
420.000000,-0.004025,0.013560,18.794807,3.906250
421.000000,-0.002270,0.013517,18.898716,3.906250
422.000000,-0.004635,0.013437,18.996666,3.906250
423.000000,-0.002728,0.013312,19.085049,3.906250
424.000000,-0.001507,0.013217,19.171329,3.906250
425.000000,0.001087,0.013173,19.254023,3.906250
426.000000,0.003758,0.013162,19.333290,3.906250
427.000000,0.001240,0.013143,19.411509,3.906250
428.000000,-0.004253,0.013109,19.487736,3.906250
429.000000,-0.003262,0.013039,19.560984,7.812500
430.000000,-0.007000,0.012971,19.627552,7.812500
431.000000,-0.000820,0.012914,19.691452,7.812500
432.000000,-0.000439,0.012811,19.752138,7.812500
433.000000,-0.008297,0.012731,19.807236,7.812500
434.000000,-0.005779,0.012650,19.855671,7.812500
435.000000,-0.003643,0.012550,19.899197,7.812500
436.000000,-0.005016,0.012483,19.941362,7.812500
437.000000,-0.004711,0.012404,19.971056,7.812500
438.000000,-0.008373,0.012341,19.999245,7.812500
439.000000,-0.012112,0.012249,20.026207,7.812500
440.000000,-0.014248,0.012141,20.051102,7.812500
441.000000,-0.012417,0.012040,20.070255,7.812500
442.000000,-0.013714,0.011942,20.088121,7.812500
443.000000,-0.013638,0.011835,20.102888,7.812500
444.000000,-0.011196,0.011717,20.114296,7.812500
445.000000,-0.010510,0.011569,20.124121,7.812500
446.000000,-0.007458,0.011436,20.132944,7.812500
447.000000,-0.003872,0.011381,20.141098,7.812500
448.000000,-0.004101,0.011281,20.147194,7.812500
449.000000,-0.001431,0.011113,20.149015,7.812500
450.000000,-0.008373,0.010944,20.148468,7.812500
451.000000,-0.001888,0.010767,20.144472,7.812500
452.000000,0.004902,0.010536,20.138763,7.812500
453.000000,0.008793,0.010318,20.130478,7.812500
454.000000,0.013066,0.010166,20.119200,7.812500
455.000000,0.024739,0.010129,20.108395,7.812500
456.000000,0.028859,0.010351,20.095528,7.812500
457.000000,0.035801,0.010642,20.081270,7.812500
458.000000,0.041142,0.011168,20.067186,7.812500
459.000000,0.049763,0.011854,20.047663,7.812500
460.000000,0.055333,0.012799,20.025328,7.812500
461.000000,0.059682,0.013793,20.000416,7.812500
462.000000,0.063497,0.014932,19.969114,7.812500
463.000000,0.065938,0.016157,19.937017,7.812500
464.000000,0.069142,0.017396,19.905121,7.812500
465.000000,0.068990,0.018671,19.902773,7.812500
466.000000,0.078832,0.019879,19.897173,7.812500
467.000000,0.081579,0.021374,19.892467,7.812500
468.000000,0.078450,0.022865,19.876528,7.812500
469.000000,0.092336,0.024141,19.855900,7.812500
470.000000,0.085317,0.025816,19.840115,7.812500
471.000000,0.078756,0.027142,19.820772,7.812500
472.000000,0.074636,0.028224,19.796812,7.812500
473.000000,0.056859,0.029162,19.770037,7.812500
474.000000,0.036412,0.029670,19.740316,7.812500
475.000000,0.020085,0.029866,19.710278,7.812500
476.000000,-0.004177,0.029917,19.685001,7.812500
477.000000,-0.012570,0.029904,19.660082,7.812500
478.000000,-0.033093,0.029917,19.634821,7.812500
479.000000,-0.048886,0.030050,19.603895,7.812500
480.000000,-0.070020,0.030390,19.571400,7.812500
481.000000,-0.087110,0.031158,19.537962,7.812500
482.000000,-0.079557,0.032329,19.498247,7.812500
483.000000,-0.091154,0.033256,19.455332,7.812500
484.000000,-0.125486,0.034433,19.412840,7.812500
485.000000,-0.162947,0.036618,19.368412,7.812500
486.000000,-0.195144,0.040065,19.327375,7.812500
487.000000,-0.213226,0.044558,19.286722,7.812500
488.000000,-0.213989,0.049382,19.252083,7.812500
489.000000,-0.207351,0.053798,19.216026,7.812500
490.000000,-0.209335,0.057643,19.168991,7.812500
491.000000,-0.189956,0.061307,19.118752,7.812500
492.000000,-0.176375,0.064167,19.066214,7.812500
493.000000,-0.160201,0.066533,19.019316,7.812500
494.000000,-0.152342,0.068421,18.965929,7.812500
495.000000,-0.144560,0.070088,18.922329,7.812500
496.000000,-0.135328,0.071556,18.883995,7.812500
497.000000,-0.126326,0.072819,18.839657,7.812500
498.000000,-0.101377,0.073903,18.798800,7.812500
499.000000,-0.082609,0.074588,18.760471,7.812500
500.000000,-0.076467,0.075035,18.721519,7.812500
501.000000,-0.040379,0.075421,18.682827,7.812500
502.000000,-0.011006,0.075527,18.642721,7.812500
503.000000,0.014477,0.075531,18.600767,3.906250
504.000000,0.037442,0.075543,18.558664,3.906250
505.000000,0.059644,0.075634,18.528851,3.906250
506.000000,0.079938,0.075868,18.502851,3.906250
507.000000,0.091077,0.076287,18.477427,3.906250
508.000000,0.092527,0.076828,18.461063,3.906250
509.000000,0.097028,0.077381,18.447515,3.906250
510.000000,0.098631,0.077986,18.432762,3.906250
511.000000,0.103742,0.078607,18.407866,3.906250
512.000000,0.106565,0.079283,18.382557,3.906250
513.000000,0.109159,0.079992,18.361952,3.906250
514.000000,0.111143,0.080731,18.348009,3.906250
515.000000,0.110227,0.081492,18.340746,3.906250
516.000000,0.105650,0.082234,18.336563,3.906250
517.000000,0.095502,0.082909,18.341913,3.906250
518.000000,0.079023,0.083457,18.352060,3.906250
519.000000,0.061475,0.083830,18.383764,3.906250
520.000000,0.050336,0.084054,18.406235,3.906250
521.000000,0.040723,0.084204,18.405529,3.906250
522.000000,0.028820,0.084302,18.416840,3.906250
523.000000,0.020504,0.084350,18.419321,3.906250
524.000000,0.012951,0.084374,18.442196,3.906250
525.000000,0.006008,0.084384,18.477919,3.906250
526.000000,0.000744,0.084386,18.521652,3.906250
527.000000,-0.009098,0.084385,18.574203,3.906250
528.000000,-0.016117,0.084390,18.629519,3.906250
529.000000,-0.020390,0.084404,18.680239,3.906250
530.000000,-0.031453,0.084428,18.736197,3.906250
531.000000,-0.044347,0.084484,18.779644,3.906250
532.000000,-0.039616,0.084600,18.814554,3.906250
533.000000,-0.040074,0.084693,18.885771,3.906250
534.000000,-0.039540,0.084784,18.950556,3.906250
535.000000,-0.039006,0.084874,19.013760,3.906250
536.000000,-0.039464,0.084963,19.076303,3.906250
537.000000,-0.039387,0.085053,19.159302,3.906250
538.000000,-0.040990,0.085143,19.250746,3.906250
539.000000,-0.040532,0.085237,19.335896,3.906250
540.000000,-0.041295,0.085325,19.410288,3.906250
541.000000,-0.039845,0.085413,19.489283,3.906250
542.000000,-0.038396,0.085497,19.555601,3.906250
543.000000,-0.037327,0.085572,19.608274,3.906250
544.000000,-0.035573,0.085643,19.661880,3.906250
545.000000,-0.029774,0.085709,19.709101,3.906250
546.000000,-0.026417,0.085754,19.749531,3.906250
547.000000,-0.025731,0.085792,19.778841,3.906250
548.000000,-0.026875,0.085829,19.800148,3.906250
549.000000,-0.025196,0.085871,19.820410,3.906250
550.000000,-0.029316,0.085907,19.820898,3.906250
551.000000,-0.026036,0.085953,19.814562,3.906250
552.000000,-0.023594,0.085993,19.808149,3.906250
553.000000,-0.024434,0.086024,19.800425,3.906250
554.000000,-0.020924,0.086054,19.804909,3.906250
555.000000,-0.017720,0.086069,19.822664,3.906250
556.000000,-0.018177,0.086052,19.856276,3.906250
557.000000,-0.015736,0.086023,19.910303,3.906250
558.000000,-0.018788,0.085963,19.967396,3.906250
559.000000,-0.019856,0.085885,20.039988,3.906250
560.000000,-0.018711,0.085763,20.124842,7.812500
561.000000,-0.017796,0.085605,20.222309,7.812500
562.000000,-0.019627,0.085415,20.327280,7.812500
563.000000,-0.018330,0.085202,20.416798,7.812500
564.000000,-0.019017,0.084966,20.507349,7.812500
565.000000,-0.015888,0.084705,20.603521,7.812500
566.000000,-0.015354,0.084439,20.709204,7.812500
567.000000,-0.012913,0.084084,20.811348,7.812500
568.000000,-0.015965,0.083697,20.892796,7.812500
569.000000,-0.015049,0.083344,20.940624,7.812500
570.000000,-0.018788,0.082845,20.958111,7.812500
571.000000,-0.018635,0.082426,20.945349,7.812500
572.000000,-0.018101,0.082070,20.905340,7.812500
573.000000,-0.018254,0.081750,20.845737,7.812500
574.000000,-0.018864,0.081572,20.773193,7.812500
575.000000,-0.018406,0.081513,20.690184,7.812500
576.000000,-0.015278,0.081509,20.597914,7.812500
577.000000,-0.011692,0.081522,20.495720,7.812500
578.000000,-0.013447,0.081521,20.387400,7.812500
579.000000,-0.019017,0.081465,20.287285,7.812500
580.000000,-0.018788,0.081340,20.194710,7.812500
581.000000,-0.019932,0.081060,20.102495,7.812500
582.000000,-0.022602,0.080615,20.033211,7.812500
583.000000,-0.021000,0.080253,19.988228,7.812500
584.000000,-0.016499,0.079762,19.962866,7.812500
585.000000,-0.016804,0.078786,19.955824,7.812500
586.000000,-0.012531,0.077101,19.964705,7.812500
587.000000,-0.016194,0.074601,19.985209,7.812500
588.000000,-0.017033,0.071507,20.008524,7.812500
589.000000,-0.017720,0.068251,20.028250,7.812500
590.000000,-0.019474,0.065049,20.042688,7.812500
591.000000,-0.021153,0.061620,20.053648,7.812500
592.000000,-0.018788,0.058657,20.064157,7.812500
593.000000,-0.021916,0.055974,20.098070,7.812500
594.000000,-0.019245,0.053677,20.127071,7.812500
595.000000,-0.016423,0.051506,20.155539,7.812500
596.000000,-0.013294,0.049463,20.172699,7.812500
597.000000,-0.011769,0.047594,20.182093,7.812500
598.000000,-0.016575,0.045902,20.189987,7.812500
599.000000,-0.015507,0.044799,20.188038,7.812500
600.000000,-0.011540,0.044059,20.178059,7.812500
601.000000,-0.017033,0.043405,20.163303,7.812500
602.000000,-0.013371,0.043251,20.145788,7.812500
603.000000,-0.009251,0.043257,20.128286,7.812500
604.000000,-0.007420,0.043243,20.114044,7.812500
605.000000,-0.005818,0.043087,20.100973,7.812500
606.000000,-0.004673,0.042676,20.088186,7.812500
607.000000,-0.007877,0.041923,20.073111,7.812500
608.000000,-0.011845,0.040930,20.056475,7.812500
609.000000,-0.009403,0.039888,20.038820,7.812500
610.000000,-0.012684,0.038701,20.017546,7.812500
611.000000,-0.012989,0.037445,19.992418,11.718750
612.000000,-0.007877,0.036002,19.966270,11.718750
613.000000,-0.010395,0.034398,19.943192,11.718750
614.000000,-0.010548,0.032636,19.924339,11.718750
615.000000,-0.010624,0.030704,19.907503,11.718750
616.000000,-0.008030,0.028677,19.895639,11.718750
617.000000,-0.008412,0.026672,19.884750,11.718750
618.000000,-0.010624,0.024917,19.869226,11.718750
619.000000,-0.013294,0.023655,19.854099,11.718750
620.000000,-0.012760,0.022881,19.838938,11.718750
621.000000,-0.011540,0.022357,19.828474,15.625000
622.000000,-0.013294,0.022013,19.816147,15.625000
623.000000,-0.014591,0.021864,19.810741,15.625000
624.000000,-0.010777,0.021817,19.809820,15.625000
625.000000,-0.010624,0.021805,19.810213,15.625000
626.000000,-0.011845,0.021822,19.816154,15.625000
627.000000,-0.011082,0.021854,19.825285,15.625000
628.000000,-0.014591,0.021863,19.834309,15.625000
629.000000,-0.011540,0.021853,19.843189,15.625000
630.000000,-0.012837,0.021788,19.853798,15.625000
631.000000,-0.014973,0.021598,19.861572,15.625000
632.000000,-0.012913,0.021191,19.870993,15.625000
633.000000,-0.012684,0.020857,19.887026,15.625000
634.000000,-0.015354,0.020508,19.904833,15.625000
635.000000,-0.012150,0.020182,19.924627,15.625000
636.000000,-0.012531,0.019838,19.948185,15.625000
637.000000,-0.010243,0.019482,19.972837,15.625000
638.000000,-0.009861,0.019107,19.997868,15.625000
639.000000,-0.012379,0.018688,20.018311,19.531250
640.000000,-0.013981,0.018286,20.036854,19.531250
641.000000,-0.013371,0.017868,20.057693,19.531250
642.000000,-0.016651,0.017469,20.080057,19.531250
643.000000,-0.014210,0.017123,20.102047,19.531250
644.000000,-0.011158,0.016772,20.124323,19.531250
645.000000,-0.010166,0.016428,20.148590,19.531250
646.000000,-0.009174,0.016188,20.174522,19.531250
647.000000,-0.012074,0.015997,20.205111,19.531250
648.000000,-0.009709,0.015835,20.232672,19.531250
649.000000,-0.010624,0.015636,20.252779,19.531250
650.000000,-0.012684,0.015468,20.274298,19.531250
651.000000,-0.014668,0.015240,20.292442,19.531250
652.000000,-0.010472,0.015088,20.314190,19.531250
653.000000,-0.013142,0.014939,20.337606,19.531250
654.000000,-0.015278,0.014796,20.361446,19.531250
655.000000,-0.011540,0.014727,20.385948,19.531250
656.000000,-0.002918,0.014665,20.409809,19.531250
657.000000,-0.003452,0.014555,20.432520,19.531250
658.000000,-0.004520,0.014474,20.456141,19.531250
659.000000,-0.009480,0.014359,20.477036,19.531250
660.000000,-0.012150,0.014252,20.494785,19.531250
661.000000,-0.012531,0.014181,20.517038,19.531250
662.000000,-0.011921,0.014125,20.536856,19.531250
663.000000,-0.010624,0.014038,20.555779,19.531250
664.000000,-0.008717,0.013959,20.574350,19.531250
665.000000,-0.007801,0.013856,20.596199,19.531250
666.000000,0.000286,0.013787,20.618479,19.531250
667.000000,0.004330,0.013701,20.639572,19.531250
668.000000,-0.005589,0.013647,20.658422,19.531250
669.000000,-0.009098,0.013565,20.677153,19.531250
670.000000,-0.013752,0.013512,20.693790,19.531250
671.000000,-0.012074,0.013451,20.708086,19.531250
672.000000,-0.006580,0.013376,20.721849,19.531250
673.000000,-0.006733,0.013269,20.734695,19.531250
674.000000,-0.007420,0.013160,20.746128,19.531250
675.000000,-0.001087,0.013045,20.756218,19.531250
676.000000,-0.003071,0.012915,20.765293,19.531250
677.000000,-0.003452,0.012828,20.774113,19.531250
678.000000,-0.005436,0.012780,20.780111,19.531250
679.000000,-0.007801,0.012720,20.784843,19.531250
680.000000,-0.009098,0.012601,20.789356,19.531250
681.000000,-0.009327,0.012494,20.793531,19.531250
682.000000,-0.009861,0.012369,20.798866,19.531250
683.000000,-0.009632,0.012201,20.805632,19.531250
684.000000,-0.005283,0.012057,20.814327,19.531250
685.000000,-0.006886,0.011955,20.825478,19.531250
686.000000,-0.003681,0.011857,20.836767,19.531250
687.000000,-0.002232,0.011796,20.849789,19.531250
688.000000,-0.007572,0.011686,20.864117,19.531250
689.000000,-0.007801,0.011586,20.879837,19.531250
690.000000,-0.010243,0.011477,20.896296,19.531250
691.000000,-0.013752,0.011356,20.910713,19.531250
692.000000,-0.010929,0.011242,20.925186,19.531250
693.000000,-0.010014,0.011138,20.940132,19.531250
694.000000,-0.007115,0.010966,20.956264,19.531250
695.000000,-0.006809,0.010819,20.971893,19.531250
696.000000,-0.006199,0.010715,20.984846,19.531250
697.000000,-0.006275,0.010651,20.993242,19.531250
698.000000,-0.010395,0.010604,20.997835,19.531250
699.000000,-0.013600,0.010525,20.998615,19.531250
700.000000,-0.011578,0.010499,20.995888,19.531250
701.000000,-0.004177,0.010499,20.990385,19.531250
702.000000,-0.011730,0.010369,20.982969,19.531250
703.000000,-0.014935,0.010349,20.973993,19.531250
704.000000,-0.010662,0.010415,20.963400,19.531250
705.000000,-0.008831,0.010443,20.950603,19.531250
706.000000,-0.008450,0.010464,20.936378,19.531250
707.000000,-0.008755,0.010488,20.922621,19.531250
708.000000,-0.009823,0.010495,20.909410,19.531250
709.000000,-0.009365,0.010474,20.895887,19.531250
710.000000,-0.011044,0.010473,20.885021,19.531250
711.000000,-0.014782,0.010455,20.877628,19.531250
712.000000,-0.013256,0.010479,20.873201,19.531250
713.000000,-0.012341,0.010533,20.871283,19.531250
714.000000,-0.012951,0.010554,20.871725,19.531250
715.000000,-0.011120,0.010580,20.873592,19.531250
716.000000,-0.012722,0.010586,20.875547,19.531250
717.000000,-0.010204,0.010631,20.877071,19.531250
718.000000,-0.011730,0.010647,20.877474,19.531250
719.000000,-0.012341,0.010659,20.876892,19.531250
720.000000,-0.015545,0.010647,20.876020,19.531250
721.000000,-0.014172,0.010684,20.879412,19.531250
722.000000,-0.017987,0.010716,20.882103,19.531250
723.000000,-0.015087,0.010784,20.885002,19.531250
724.000000,-0.014248,0.010791,20.885300,19.531250
725.000000,-0.015698,0.010831,20.883591,19.531250
726.000000,-0.010204,0.010893,20.881552,19.531250
727.000000,-0.011349,0.010876,20.877022,19.531250
728.000000,-0.014401,0.010879,20.870857,19.531250
729.000000,-0.013561,0.010876,20.863188,19.531250
730.000000,-0.017300,0.010899,20.854549,19.531250
731.000000,-0.014706,0.010961,20.845739,19.531250
732.000000,-0.014172,0.010957,20.837383,19.531250
733.000000,-0.013027,0.010973,20.828526,19.531250
734.000000,-0.013561,0.010977,20.819542,19.531250
735.000000,-0.009518,0.010953,20.809380,19.531250
736.000000,-0.007763,0.010927,20.797869,19.531250
737.000000,-0.004559,0.010883,20.785213,19.531250
738.000000,-0.009213,0.010844,20.771030,19.531250
739.000000,-0.013180,0.010838,20.754856,19.531250
740.000000,-0.012722,0.010848,20.738174,19.531250
741.000000,-0.011273,0.010832,20.721642,19.531250
742.000000,-0.010052,0.010808,20.705744,19.531250
743.000000,-0.008068,0.010727,20.689482,19.531250
744.000000,-0.005322,0.010663,20.673807,19.531250
745.000000,-0.003491,0.010617,20.657347,19.531250
746.000000,-0.003948,0.010574,20.638712,19.531250
747.000000,-0.005932,0.010542,20.618755,19.531250
748.000000,-0.009594,0.010489,20.597082,19.531250
749.000000,-0.009289,0.010488,20.577141,19.531250
750.000000,-0.011196,0.010476,20.556225,19.531250
751.000000,-0.011654,0.010459,20.538059,19.531250
752.000000,-0.010586,0.010421,20.520979,19.531250
753.000000,-0.010281,0.010422,20.503336,19.531250
754.000000,-0.009213,0.010390,20.487867,19.531250
755.000000,-0.005856,0.010318,20.473665,19.531250
756.000000,-0.009594,0.010270,20.458727,19.531250
757.000000,-0.008145,0.010310,20.443842,19.531250
758.000000,-0.007229,0.010337,20.430021,19.531250
759.000000,-0.015240,0.010352,20.414848,19.531250
760.000000,-0.014019,0.010421,20.401009,19.531250
761.000000,-0.014401,0.010444,20.391172,19.531250
762.000000,-0.015393,0.010468,20.383024,19.531250
763.000000,-0.014706,0.010513,20.376850,19.531250
764.000000,-0.011273,0.010563,20.373350,19.531250
765.000000,-0.011349,0.010587,20.370583,19.531250
766.000000,-0.006619,0.010619,20.369209,19.531250
767.000000,-0.009442,0.010639,20.365379,19.531250
768.000000,-0.012722,0.010672,20.361609,19.531250
769.000000,-0.011730,0.010733,20.360703,19.531250
770.000000,-0.012646,0.010759,20.361208,19.531250
771.000000,-0.013104,0.010745,20.362900,19.531250
772.000000,-0.013180,0.010757,20.366293,19.531250
773.000000,-0.011578,0.010818,20.371862,19.531250
774.000000,-0.012951,0.010859,20.379740,19.531250
775.000000,-0.007382,0.010910,20.391777,19.531250
776.000000,-0.005550,0.010935,20.402491,19.531250
777.000000,-0.005856,0.010945,20.408415,19.531250
778.000000,-0.009289,0.010955,20.416578,19.531250
779.000000,-0.010586,0.010981,20.423264,19.531250
780.000000,-0.010967,0.011004,20.434011,19.531250
781.000000,-0.007763,0.011021,20.447111,19.531250
782.000000,-0.010815,0.011009,20.460999,19.531250
783.000000,-0.005703,0.011018,20.477171,19.531250
784.000000,-0.007305,0.010990,20.494188,19.531250
785.000000,-0.007458,0.011002,20.510702,19.531250
786.000000,-0.006619,0.011006,20.528824,19.531250
787.000000,-0.002728,0.011020,20.544771,19.531250
788.000000,-0.005779,0.011021,20.559053,19.531250
789.000000,-0.007534,0.011010,20.578442,19.531250
790.000000,-0.009213,0.011008,20.596405,19.531250
791.000000,-0.010739,0.010999,20.614380,19.531250
792.000000,-0.008373,0.010965,20.633291,19.531250
793.000000,-0.007763,0.010943,20.655575,19.531250
794.000000,-0.008602,0.010924,20.678738,19.531250
795.000000,-0.005627,0.010935,20.701143,19.531250
796.000000,-0.003414,0.010928,20.721676,19.531250
797.000000,-0.005322,0.010916,20.742159,19.531250
798.000000,-0.006313,0.010911,20.760435,19.531250
799.000000,-0.009976,0.010880,20.776228,19.531250
800.000000,-0.011578,0.010840,20.791094,19.531250
801.000000,-0.012417,0.010840,20.804567,19.531250
802.000000,-0.012570,0.010903,20.816078,19.531250
803.000000,-0.012493,0.010913,20.825439,19.531250
804.000000,-0.008602,0.010882,20.832977,19.531250
805.000000,-0.009670,0.010864,20.839563,19.531250
806.000000,-0.008602,0.010871,20.841944,19.531250
807.000000,-0.006771,0.010872,20.842699,19.531250
808.000000,-0.011425,0.010858,20.842739,19.531250
809.000000,-0.010739,0.010873,20.841774,19.531250
810.000000,-0.009594,0.010886,20.842609,19.531250
811.000000,-0.006695,0.010872,20.845697,19.531250
812.000000,-0.011883,0.010792,20.851944,19.531250
813.000000,-0.015240,0.010776,20.862537,19.531250
814.000000,-0.011883,0.010813,20.874027,19.531250
815.000000,-0.006466,0.010801,20.888868,19.531250
816.000000,-0.004635,0.010763,20.906588,19.531250
817.000000,-0.006313,0.010698,20.927380,19.531250
818.000000,-0.007382,0.010668,20.950161,19.531250
819.000000,-0.011196,0.010629,20.969732,19.531250
820.000000,-0.009213,0.010616,20.989588,19.531250
821.000000,-0.004940,0.010542,21.011549,19.531250
822.000000,-0.004406,0.010458,21.035769,19.531250
823.000000,-0.012646,0.010311,21.059219,19.531250
824.000000,-0.008145,0.010278,21.078260,19.531250
825.000000,-0.005856,0.010212,21.090141,19.531250
826.000000,-0.003643,0.010107,21.095573,19.531250
827.000000,-0.005550,0.010062,21.094608,19.531250
828.000000,-0.004711,0.010013,21.088371,19.531250
829.000000,-0.004788,0.009921,21.078192,19.531250
830.000000,-0.010815,0.009839,21.065432,19.531250
831.000000,-0.013104,0.009746,21.050501,19.531250
832.000000,-0.005398,0.009723,21.033489,19.531250
833.000000,-0.005779,0.009634,21.014013,19.531250
834.000000,-0.005322,0.009563,20.993078,19.531250
835.000000,-0.001354,0.009482,20.974199,19.531250
836.000000,-0.004482,0.009435,20.956997,19.531250
837.000000,-0.009518,0.009413,20.940241,19.531250
838.000000,-0.009060,0.009450,20.929581,19.531250
839.000000,-0.010052,0.009449,20.925318,19.531250
840.000000,-0.007610,0.009410,20.927383,19.531250
841.000000,-0.007687,0.009355,20.933901,19.531250
842.000000,-0.009289,0.009319,20.944500,19.531250
843.000000,-0.005245,0.009311,20.957716,19.531250
844.000000,-0.005550,0.009291,20.970926,19.531250
845.000000,-0.008068,0.009292,20.982559,19.531250
846.000000,-0.007153,0.009320,20.992317,19.531250
847.000000,-0.006771,0.009339,20.999857,19.531250
848.000000,-0.007153,0.009345,21.006336,19.531250
849.000000,-0.006161,0.009323,21.016029,19.531250
850.000000,-0.008755,0.009297,21.023684,19.531250
851.000000,-0.013638,0.009271,21.030138,19.531250
852.000000,-0.008602,0.009298,21.032473,19.531250
853.000000,-0.006771,0.009278,21.031353,19.531250
854.000000,-0.005322,0.009245,21.028809,19.531250
855.000000,-0.004025,0.009215,21.023140,19.531250
856.000000,-0.007305,0.009205,21.015985,19.531250
857.000000,-0.006466,0.009184,21.007431,19.531250
858.000000,-0.006085,0.009170,20.998037,19.531250
859.000000,-0.007229,0.009162,20.988703,19.531250
860.000000,-0.009747,0.009063,20.980074,19.531250
861.000000,-0.010052,0.009007,20.971292,19.531250
862.000000,-0.008297,0.008948,20.963039,19.531250
863.000000,-0.011807,0.008853,20.953728,19.531250
864.000000,-0.007534,0.008810,20.944225,19.531250
865.000000,-0.008984,0.008770,20.934038,19.531250
866.000000,-0.005550,0.008743,20.922680,19.531250
867.000000,-0.006085,0.008735,20.910324,19.531250
868.000000,-0.007229,0.008705,20.898806,19.531250
869.000000,-0.009136,0.008642,20.886812,19.531250
870.000000,-0.010967,0.008611,20.875345,19.531250
871.000000,-0.012646,0.008588,20.863329,19.531250
872.000000,-0.013104,0.008581,20.851730,19.531250
873.000000,-0.015698,0.008580,20.839512,19.531250
874.000000,-0.010510,0.008645,20.825089,19.531250
875.000000,-0.010510,0.008612,20.809319,19.531250
876.000000,-0.008068,0.008644,20.791897,19.531250
877.000000,-0.008831,0.008664,20.776285,19.531250
878.000000,-0.008831,0.008689,20.759348,19.531250
879.000000,-0.008984,0.008684,20.744900,19.531250
880.000000,-0.012875,0.008666,20.731138,19.531250
881.000000,-0.014401,0.008692,20.716492,19.531250
882.000000,-0.013638,0.008777,20.703552,19.531250
883.000000,-0.014553,0.008816,20.691572,19.531250
884.000000,-0.013714,0.008917,20.678679,19.531250
885.000000,-0.010357,0.008992,20.665926,19.531250
886.000000,-0.008450,0.009021,20.653940,19.531250
887.000000,-0.007076,0.009036,20.640644,19.531250
888.000000,-0.008831,0.009060,20.628420,19.531250
889.000000,-0.010281,0.009084,20.619724,19.531250
890.000000,-0.013943,0.009111,20.612595,19.531250
891.000000,-0.014858,0.009171,20.607149,19.531250
892.000000,-0.013027,0.009228,20.604183,19.531250
893.000000,-0.011807,0.009282,20.601562,19.531250
894.000000,-0.009823,0.009325,20.599916,19.531250
895.000000,-0.010510,0.009337,20.595835,19.531250
896.000000,-0.008602,0.009379,20.591839,19.531250
897.000000,-0.007610,0.009412,20.590542,19.531250
898.000000,-0.010739,0.009428,20.590361,19.531250
899.000000,-0.013104,0.009468,20.591192,19.531250
900.000000,-0.011425,0.009506,20.593378,19.531250
901.000000,-0.010662,0.009504,20.597654,19.531250
902.000000,-0.012493,0.009483,20.604109,19.531250
903.000000,-0.011196,0.009482,20.614578,19.531250
904.000000,-0.009365,0.009465,20.623272,19.531250
905.000000,-0.010967,0.009473,20.627184,19.531250
906.000000,-0.007839,0.009487,20.633249,19.531250
907.000000,-0.005169,0.009480,20.637823,19.531250
908.000000,-0.009365,0.009470,20.646315,19.531250
909.000000,-0.011959,0.009447,20.657061,19.531250
910.000000,-0.011959,0.009462,20.668497,19.531250
911.000000,-0.014172,0.009489,20.682055,19.531250
912.000000,-0.009976,0.009571,20.696354,19.531250
913.000000,-0.011196,0.009549,20.710152,19.531250
914.000000,-0.010357,0.009493,20.725473,19.531250
915.000000,-0.006008,0.009475,20.738592,19.531250
916.000000,-0.007458,0.009472,20.750097,19.531250
917.000000,-0.007229,0.009490,20.766678,19.531250
918.000000,-0.006390,0.009496,20.781775,19.531250
919.000000,-0.008450,0.009489,20.796892,19.531250
920.000000,-0.012264,0.009461,20.812943,19.531250
921.000000,-0.011578,0.009495,20.832396,19.531250
922.000000,-0.011578,0.009553,20.852757,19.531250
923.000000,-0.009747,0.009613,20.872383,19.531250
924.000000,-0.009976,0.009579,20.890165,19.531250
925.000000,-0.006313,0.009596,20.907932,19.531250
926.000000,-0.003948,0.009599,20.923525,19.531250
927.000000,-0.005398,0.009600,20.936657,19.531250
928.000000,-0.008373,0.009599,20.948895,19.531250
929.000000,-0.009594,0.009624,20.959797,19.531250
930.000000,-0.009060,0.009660,20.968752,19.531250
931.000000,-0.008145,0.009642,20.975647,19.531250
932.000000,-0.011730,0.009587,20.980846,19.531250
933.000000,-0.017147,0.009644,20.985147,19.531250
934.000000,-0.011044,0.009778,20.985296,19.531250
935.000000,-0.006466,0.009826,20.983826,19.531250
936.000000,-0.004330,0.009846,20.981703,19.531250
937.000000,-0.007916,0.009845,20.978735,19.531250
938.000000,-0.008602,0.009831,20.977581,19.531250
939.000000,-0.012036,0.009827,20.978811,19.531250
940.000000,-0.012264,0.009849,20.983370,19.531250
941.000000,-0.012722,0.009896,20.992435,19.531250
942.000000,-0.012417,0.009948,21.002508,19.531250
943.000000,-0.011425,0.009982,21.016022,19.531250
944.000000,-0.011349,0.010033,21.032509,19.531250
945.000000,-0.012341,0.010082,21.052065,19.531250
946.000000,-0.011044,0.010125,21.073746,19.531250
947.000000,-0.008984,0.010160,21.092201,19.531250
948.000000,-0.008602,0.010177,21.111023,19.531250
949.000000,-0.010128,0.010189,21.132118,19.531250
950.000000,-0.013561,0.010220,21.155552,19.531250
951.000000,-0.014019,0.010273,21.178314,19.531250
952.000000,-0.010281,0.010278,21.196747,19.531250
953.000000,-0.011959,0.010293,21.208097,19.531250
954.000000,-0.011578,0.010340,21.213068,19.531250
955.000000,-0.009060,0.010391,21.211611,19.531250
956.000000,-0.007839,0.010423,21.204905,19.531250
957.000000,-0.006542,0.010427,21.194298,19.531250
958.000000,-0.008602,0.010427,21.181194,19.531250
959.000000,-0.011425,0.010445,21.165970,19.531250
960.000000,-0.011120,0.010482,21.148718,19.531250
961.000000,-0.011349,0.010496,21.129145,19.531250
962.000000,-0.010739,0.010509,21.108194,19.531250
963.000000,-0.010586,0.010531,21.089359,19.531250
964.000000,-0.007305,0.010518,21.072292,19.531250
965.000000,-0.004788,0.010517,21.055706,19.531250
966.000000,-0.005703,0.010489,21.045311,19.531250
967.000000,-0.007839,0.010490,21.041386,19.531250
968.000000,-0.007916,0.010502,21.043861,19.531250
969.000000,-0.010967,0.010507,21.050909,19.531250
970.000000,-0.014782,0.010524,21.062143,19.531250
971.000000,-0.012264,0.010571,21.076086,19.531250
972.000000,-0.006924,0.010566,21.090124,19.531250
973.000000,-0.008373,0.010507,21.102631,19.531250
974.000000,-0.009289,0.010423,21.113327,19.531250
975.000000,-0.006924,0.010412,21.121857,19.531250
976.000000,-0.008373,0.010382,21.129377,19.531250
977.000000,-0.007305,0.010384,21.140181,19.531250
978.000000,-0.009365,0.010372,21.149004,19.531250
979.000000,-0.013256,0.010377,21.156693,19.531250
980.000000,-0.011578,0.010422,21.160334,19.531250
981.000000,-0.009060,0.010407,21.160576,19.531250
982.000000,-0.010586,0.010347,21.159452,19.531250
983.000000,-0.011349,0.010311,21.155262,19.531250
984.000000,-0.010357,0.010271,21.149624,19.531250
985.000000,-0.007839,0.010231,21.142637,19.531250
986.000000,-0.004101,0.010209,21.134867,19.531250
987.000000,-0.006619,0.010182,21.127205,19.531250
988.000000,-0.009670,0.010179,21.120306,19.531250
989.000000,-0.012112,0.010187,21.113317,19.531250
990.000000,-0.009365,0.010207,21.106911,19.531250
991.000000,-0.014630,0.010154,21.099483,19.531250
992.000000,-0.008526,0.010151,21.091908,19.531250
993.000000,-0.009136,0.010103,21.083666,19.531250
994.000000,-0.008984,0.010075,21.074266,19.531250
995.000000,-0.006619,0.010068,21.063879,19.531250
996.000000,-0.005398,0.010034,21.054399,19.531250
997.000000,-0.007534,0.010012,21.044468,19.531250
998.000000,-0.006771,0.010012,21.035086,19.531250
999.000000,-0.011425,0.009977,21.025162,19.531250
1000.000000,-0.010891,0.009956,21.015644,19.531250
1001.000000,-0.011654,0.009950,21.005459,19.531250
1002.000000,-0.011578,0.009961,20.993029,19.531250
1003.000000,-0.010891,0.009950,20.979136,19.531250
1004.000000,-0.009747,0.009947,20.963488,19.531250
1005.000000,-0.008297,0.009950,20.949717,19.531250
1006.000000,-0.001965,0.009925,20.934654,19.531250
1007.000000,-0.003262,0.009896,20.922140,19.531250
1008.000000,-0.009823,0.009887,20.910215,19.531250
1009.000000,-0.009899,0.009892,20.897211,19.531250
1010.000000,-0.009670,0.009869,20.885824,19.531250
1011.000000,-0.011578,0.009844,20.875326,19.531250
1012.000000,-0.011883,0.009810,20.863707,19.531250
1013.000000,-0.009289,0.009831,20.852077,19.531250
1014.000000,-0.010739,0.009811,20.840979,19.531250
1015.000000,-0.005093,0.009815,20.828581,19.531250
1016.000000,-0.002956,0.009810,20.817278,19.531250
1017.000000,-0.000515,0.009786,20.809471,19.531250
1018.000000,-0.004711,0.009760,20.803026,19.531250
1019.000000,-0.009365,0.009750,20.798128,19.531250
1020.000000,-0.012036,0.009758,20.795488,19.531250
1021.000000,-0.011501,0.009756,20.792923,19.531250
1022.000000,-0.010281,0.009755,20.791203,19.531250
1023.000000,-0.009670,0.009740,20.786776,19.531250
1024.000000,-0.009823,0.009739,20.782255,19.531250
1025.000000,-0.007153,0.009738,20.780439,19.531250
1026.000000,-0.004482,0.009744,20.779566,19.531250
1027.000000,-0.004253,0.009746,20.779673,19.531250
1028.000000,-0.005627,0.009740,20.781160,19.531250
1029.000000,-0.005093,0.009721,20.784538,19.531250
1030.000000,-0.010128,0.009686,20.789902,19.531250
1031.000000,-0.012417,0.009697,20.798990,19.531250
1032.000000,-0.014477,0.009742,20.806135,19.531250
1033.000000,-0.013790,0.009779,20.808439,19.531250
1034.000000,-0.010281,0.009726,20.812750,19.531250
1035.000000,-0.006085,0.009718,20.815601,19.531250
1036.000000,-0.004559,0.009715,20.822485,19.531250
1037.000000,-0.004101,0.009716,20.831528,19.531250
1038.000000,-0.006847,0.009692,20.841005,19.531250
1039.000000,-0.011273,0.009678,20.852718,19.531250
1040.000000,-0.011044,0.009669,20.865129,19.531250
1041.000000,-0.012112,0.009655,20.876871,19.531250
1042.000000,-0.009670,0.009647,20.890047,19.531250
1043.000000,-0.007534,0.009615,20.900982,19.531250
1044.000000,-0.011959,0.009577,20.910284,19.531250
1045.000000,-0.011120,0.009584,20.924795,19.531250
1046.000000,-0.008984,0.009569,20.937857,19.531250
1047.000000,-0.005932,0.009548,20.950947,19.531250
1048.000000,-0.005932,0.009524,20.965012,19.531250
1049.000000,-0.007839,0.009503,20.982460,19.531250
1050.000000,-0.009518,0.009482,21.000740,19.531250
1051.000000,-0.012188,0.009432,21.018229,19.531250
1052.000000,-0.010967,0.009407,21.033901,19.531250
1053.000000,-0.010662,0.009415,21.049734,19.531250
1054.000000,-0.014782,0.009399,21.063324,19.531250
1055.000000,-0.008373,0.009444,21.074486,19.531250
1056.000000,-0.008145,0.009438,21.084839,19.531250
1057.000000,-0.005398,0.009440,21.093914,19.531250
1058.000000,-0.008145,0.009433,21.101061,19.531250
1059.000000,-0.011273,0.009429,21.106195,19.531250
1060.000000,-0.012188,0.009427,21.109570,19.531250
1061.000000,-0.011883,0.009440,21.112101,19.531250
1062.000000,-0.015164,0.009447,21.110558,19.531250
1063.000000,-0.013790,0.009507,21.107349,19.531250
1064.000000,-0.010433,0.009548,21.103546,19.531250
1065.000000,-0.010204,0.009577,21.098995,19.531250
1066.000000,-0.007534,0.009620,21.096333,19.531250
1067.000000,-0.007687,0.009632,21.096178,19.531250
1068.000000,-0.011044,0.009631,21.099365,19.531250
1069.000000,-0.011807,0.009662,21.107101,19.531250
1070.000000,-0.012646,0.009672,21.115883,19.531250
1071.000000,-0.017071,0.009641,21.128191,19.531250
1072.000000,-0.015393,0.009714,21.143497,19.531250
1073.000000,-0.012188,0.009811,21.161966,19.531250
1074.000000,-0.010662,0.009851,21.182610,19.531250
1075.000000,-0.005779,0.009865,21.200090,19.531250
1076.000000,-0.007916,0.009857,21.218018,19.531250
1077.000000,-0.008373,0.009853,21.238276,19.531250
1078.000000,-0.009289,0.009862,21.260925,19.531250
1079.000000,-0.012951,0.009861,21.282951,19.531250
1080.000000,-0.009518,0.009857,21.300680,19.531250
1081.000000,-0.011196,0.009835,21.311354,19.531250
1082.000000,-0.013256,0.009857,21.315678,19.531250
1083.000000,-0.012188,0.009889,21.313606,19.531250
1084.000000,-0.009365,0.009899,21.306324,19.531250
1085.000000,-0.007610,0.009889,21.295189,19.531250
1086.000000,-0.005932,0.009888,21.281603,19.531250
1087.000000,-0.004559,0.009897,21.265938,19.531250
1088.000000,-0.003796,0.009885,21.248281,19.531250
1089.000000,-0.007458,0.009845,21.228357,19.531250
1090.000000,-0.008450,0.009799,21.207106,19.531250
1091.000000,-0.014019,0.009791,21.188032,19.531250
1092.000000,-0.011959,0.009782,21.170805,19.531250
1093.000000,-0.011883,0.009817,21.154106,19.531250
1094.000000,-0.011044,0.009847,21.143671,19.531250
1095.000000,-0.007839,0.009868,21.139795,19.531250
1096.000000,-0.003262,0.009877,21.142345,19.531250
1097.000000,-0.003033,0.009867,21.149521,19.531250
1098.000000,-0.004482,0.009843,21.160913,19.531250
1099.000000,-0.009899,0.009830,21.175083,19.531250
1100.000000,-0.008412,0.009814,21.189434,19.531250
1101.000000,-0.013447,0.009789,21.202353,19.531250
1102.000000,-0.014210,0.009812,21.213505,19.531250
1103.000000,-0.010929,0.009847,21.222569,19.531250
1104.000000,-0.009861,0.009847,21.230642,19.531250
1105.000000,-0.008869,0.009848,21.242035,19.531250
1106.000000,-0.006886,0.009853,21.251472,19.531250
1107.000000,-0.003910,0.009875,21.259775,19.531250
1108.000000,-0.007496,0.009878,21.264050,19.531250
1109.000000,-0.011540,0.009857,21.264971,19.531250
1110.000000,-0.010014,0.009875,21.264582,19.531250
1111.000000,-0.011463,0.009878,21.261215,19.531250
1112.000000,-0.009861,0.009877,21.256575,19.531250
1113.000000,-0.011311,0.009855,21.250694,19.531250
1114.000000,-0.009556,0.009876,21.244062,19.531250
1115.000000,-0.009556,0.009864,21.237484,19.531250
1116.000000,-0.009785,0.009897,21.231634,19.531250
1117.000000,-0.010090,0.009941,21.225708,19.531250
1118.000000,-0.007725,0.009992,21.220451,19.531250
1119.000000,-0.009632,0.010010,21.214207,19.531250
1120.000000,-0.011921,0.010013,21.208031,19.531250
1121.000000,-0.013218,0.010012,21.201193,19.531250
1122.000000,-0.012074,0.010033,21.193249,19.531250
1123.000000,-0.009785,0.010053,21.184320,19.531250
1124.000000,-0.005436,0.010054,21.176367,19.531250
1125.000000,-0.012531,0.010020,21.168016,19.531250
1126.000000,-0.012226,0.010073,21.160200,19.531250
1127.000000,-0.008488,0.010137,21.151796,19.531250
1128.000000,-0.009174,0.010164,21.143736,19.531250
1129.000000,-0.011006,0.010190,21.135061,19.531250
1130.000000,-0.011769,0.010236,21.124184,19.531250
1131.000000,-0.012684,0.010254,21.111856,19.531250
1132.000000,-0.007725,0.010257,21.097870,19.531250
1133.000000,-0.009861,0.010184,21.085781,19.531250
1134.000000,-0.012684,0.010138,21.072336,19.531250
1135.000000,-0.009709,0.010165,21.061487,19.531250
1136.000000,-0.007725,0.010193,21.051037,19.531250
1137.000000,-0.008793,0.010212,21.039440,19.531250
1138.000000,-0.006352,0.010242,21.029367,19.531250
1139.000000,-0.008717,0.010239,21.020187,19.531250
1140.000000,-0.009709,0.010214,21.009890,19.531250
1141.000000,-0.009403,0.010200,20.999613,19.531250
1142.000000,-0.010395,0.010171,20.989780,19.531250
1143.000000,-0.013066,0.010179,20.978647,19.531250
1144.000000,-0.011616,0.010234,20.968542,19.531250
1145.000000,-0.008869,0.010230,20.961744,19.531250
1146.000000,-0.005283,0.010208,20.956242,19.531250
1147.000000,-0.007267,0.010183,20.952183,19.531250
1148.000000,-0.006504,0.010191,20.950356,19.531250
1149.000000,-0.008106,0.010195,20.948479,19.531250
1150.000000,-0.009632,0.010197,20.947311,19.531250
1151.000000,-0.013447,0.010198,20.943388,19.531250
1152.000000,-0.009709,0.010214,20.939405,19.531250
1153.000000,-0.011540,0.010201,20.938026,19.531250
1154.000000,-0.010014,0.010210,20.937424,19.531250
1155.000000,-0.008640,0.010152,20.937668,19.531250
1156.000000,-0.006886,0.010155,20.939106,19.531250
1157.000000,-0.007038,0.010145,20.942396,19.531250
1158.000000,-0.005131,0.010155,20.947636,19.531250
1159.000000,-0.009556,0.010136,20.956547,19.531250
1160.000000,-0.009327,0.010118,20.963362,19.531250
1161.000000,-0.010624,0.010088,20.965227,19.531250
1162.000000,-0.011082,0.010073,20.969061,19.531250
1163.000000,-0.012150,0.010020,20.971367,19.531250
1164.000000,-0.009251,0.009999,20.977634,19.531250
1165.000000,-0.007420,0.009987,20.985992,19.531250
1166.000000,-0.004673,0.009963,20.994715,19.531250
1167.000000,-0.004673,0.009945,21.005608,19.531250
1168.000000,-0.007877,0.009926,21.017139,19.531250
1169.000000,-0.008183,0.009896,21.027985,19.531250
1170.000000,-0.010548,0.009859,21.040249,19.531250
1171.000000,-0.011463,0.009835,21.050226,19.531250
1172.000000,-0.011921,0.009753,21.058548,19.531250
1173.000000,-0.006962,0.009704,21.072071,19.531250
1174.000000,-0.008412,0.009653,21.084108,19.531250
1175.000000,-0.006428,0.009630,21.096165,19.531250
1176.000000,-0.007954,0.009634,21.109198,19.531250
1177.000000,-0.006580,0.009635,21.125637,19.531250
1178.000000,-0.008335,0.009621,21.142916,19.531250
1179.000000,-0.009251,0.009612,21.159405,19.531250
1180.000000,-0.008030,0.009569,21.174070,19.531250
1181.000000,-0.009632,0.009556,21.188910,19.531250
1182.000000,-0.007954,0.009539,21.201500,19.531250
1183.000000,-0.009327,0.009479,21.211657,19.531250
1184.000000,-0.009174,0.009447,21.221027,19.531250
1185.000000,-0.008869,0.009445,21.229143,19.531250
1186.000000,-0.007572,0.009456,21.235342,19.531250
1187.000000,-0.006657,0.009468,21.239569,19.531250
1188.000000,-0.006504,0.009480,21.242090,19.531250
1189.000000,-0.008259,0.009495,21.243761,19.531250
1190.000000,-0.008412,0.009501,21.241346,19.531250
1191.000000,-0.011769,0.009501,21.237289,19.531250
1192.000000,-0.009709,0.009471,21.232653,19.531250
1193.000000,-0.009327,0.009445,21.227329,19.531250
1194.000000,-0.010548,0.009416,21.223927,19.531250
1195.000000,-0.010548,0.009410,21.223093,19.531250
1196.000000,-0.007877,0.009437,21.225664,19.531250
1197.000000,-0.004978,0.009464,21.232868,19.531250
1198.000000,-0.006275,0.009472,21.241163,19.531250
1199.000000,-0.010624,0.009482,21.253052,19.531250
1200.000000,-0.011654,0.009490,21.268011,19.531250
1201.000000,-0.012112,0.009524,21.286139,19.531250
1202.000000,-0.011807,0.009507,21.306496,19.531250
1203.000000,-0.010967,0.009474,21.323696,19.531250
1204.000000,-0.009670,0.009474,21.341412,19.531250
1205.000000,-0.010586,0.009472,21.361567,19.531250
1206.000000,-0.005550,0.009490,21.384121,19.531250
1207.000000,-0.004482,0.009481,21.406115,19.531250
1208.000000,-0.006390,0.009483,21.423889,19.531250
1209.000000,-0.011578,0.009475,21.434616,19.531250
1210.000000,-0.010510,0.009476,21.439016,19.531250
1211.000000,-0.012722,0.009481,21.436981,19.531250
1212.000000,-0.008679,0.009497,21.429750,19.531250
1213.000000,-0.010128,0.009486,21.418716,19.531250
1214.000000,-0.009670,0.009472,21.405254,19.531250
1215.000000,-0.008068,0.009473,21.389721,19.531250
1216.000000,-0.007458,0.009460,21.372265,19.531250
1217.000000,-0.006161,0.009438,21.352633,19.531250
1218.000000,-0.005322,0.009404,21.331715,19.531250
1219.000000,-0.008297,0.009388,21.313046,19.531250
1220.000000,-0.007839,0.009375,21.296265,19.531250
1221.000000,-0.010052,0.009332,21.280043,19.531250
1222.000000,-0.011501,0.009292,21.270142,19.531250
1223.000000,-0.012341,0.009285,21.266859,19.531250
1224.000000,-0.009365,0.009315,21.270052,19.531250
1225.000000,-0.008755,0.009347,21.277966,19.531250
1226.000000,-0.009670,0.009304,21.290203,19.531250
1227.000000,-0.007458,0.009273,21.305334,19.531250
1228.000000,-0.007153,0.009265,21.320684,19.531250
1229.000000,-0.008831,0.009247,21.334635,19.531250
1230.000000,-0.007687,0.009223,21.346836,19.531250
1231.000000,-0.008526,0.009180,21.356968,19.531250
1232.000000,-0.010204,0.009132,21.366135,19.531250
1233.000000,-0.016079,0.009156,21.378696,19.531250
1234.000000,-0.012722,0.009244,21.389324,19.531250
1235.000000,-0.010815,0.009245,21.398891,19.531250
1236.000000,-0.005322,0.009257,21.404474,19.531250
1237.000000,-0.006771,0.009240,21.406733,19.531250
1238.000000,-0.006542,0.009223,21.407711,19.531250
1239.000000,-0.011654,0.009224,21.405756,19.531250
1240.000000,-0.012188,0.009257,21.402533,19.531250
1241.000000,-0.011654,0.009286,21.398096,19.531250
1242.000000,-0.009060,0.009311,21.392946,19.531250
1243.000000,-0.007916,0.009297,21.387873,19.531250
1244.000000,-0.009747,0.009239,21.383551,19.531250
1245.000000,-0.013638,0.009217,21.379219,19.531250
1246.000000,-0.012646,0.009275,21.375610,19.531250
1247.000000,-0.008297,0.009346,21.371040,19.531250
1248.000000,-0.004482,0.009355,21.366562,19.531250
1249.000000,-0.007534,0.009343,21.361418,19.531250
1250.000000,-0.008068,0.009338,21.355175,19.531250
1251.000000,-0.013256,0.009323,21.347950,19.531250
1252.000000,-0.012264,0.009321,21.341707,19.531250
1253.000000,-0.011044,0.009351,21.335072,19.531250
1254.000000,-0.010510,0.009345,21.328978,19.531250
1255.000000,-0.006771,0.009350,21.322283,19.531250
1256.000000,-0.005627,0.009335,21.315929,19.531250
1257.000000,-0.006542,0.009326,21.308935,19.531250
1258.000000,-0.008145,0.009323,21.299694,19.531250
1259.000000,-0.008907,0.009344,21.288954,19.531250
1260.000000,-0.010967,0.009338,21.276503,19.531250
1261.000000,-0.007153,0.009356,21.265913,19.531250
1262.000000,-0.007000,0.009323,21.253912,19.531250
1263.000000,-0.010815,0.009283,21.244465,19.531250
1264.000000,-0.010204,0.009266,21.235350,19.531250
1265.000000,-0.007992,0.009276,21.224997,19.531250
1266.000000,-0.006924,0.009281,21.216095,19.531250
1267.000000,-0.006161,0.009295,21.208000,19.531250
1268.000000,-0.007153,0.009304,21.198677,19.531250
1269.000000,-0.010204,0.009298,21.189257,19.531250
1270.000000,-0.011807,0.009318,21.180149,19.531250
1271.000000,-0.012036,0.009333,21.169630,19.531250
1272.000000,-0.009594,0.009340,21.160059,19.531250
1273.000000,-0.010357,0.009313,21.153694,19.531250
1274.000000,-0.010586,0.009345,21.148483,19.531250
1275.000000,-0.009976,0.009367,21.144596,19.531250
1276.000000,-0.009365,0.009398,21.142801,19.531250
1277.000000,-0.009823,0.009411,21.140800,19.531250
1278.000000,-0.009747,0.009439,21.139351,19.531250
1279.000000,-0.012493,0.009453,21.134977,19.531250
1280.000000,-0.012036,0.009490,21.130436,19.531250
1281.000000,-0.011730,0.009532,21.128389,19.531250
1282.000000,-0.012875,0.009556,21.126982,19.531250
1283.000000,-0.014401,0.009609,21.126299,19.531250
1284.000000,-0.006771,0.009672,21.126699,19.531250
1285.000000,-0.007305,0.009652,21.128834,19.531250
1286.000000,-0.010204,0.009639,21.132809,19.531250
1287.000000,-0.009899,0.009663,21.140301,19.531250
1288.000000,-0.007763,0.009691,21.145554,19.531250
1289.000000,-0.010128,0.009700,21.145761,19.531250
1290.000000,-0.009899,0.009718,21.147894,19.531250
1291.000000,-0.012036,0.009732,21.148396,19.531250
1292.000000,-0.010204,0.009735,21.152855,19.531250
1293.000000,-0.007992,0.009740,21.159325,19.531250
1294.000000,-0.012264,0.009728,21.166126,19.531250
1295.000000,-0.009442,0.009748,21.175035,19.531250
1296.000000,-0.002804,0.009737,21.184500,19.531250
1297.000000,-0.005398,0.009709,21.193232,19.531250
1298.000000,-0.004711,0.009711,21.203344,19.531250
1299.000000,-0.010433,0.009702,21.211128,19.531250
1300.000000,-0.011654,0.009700,21.217260,19.531250
1301.000000,-0.011883,0.009700,21.228645,19.531250
1302.000000,-0.010052,0.009697,21.238579,19.531250
1303.000000,-0.010052,0.009678,21.248533,19.531250
1304.000000,-0.009747,0.009668,21.259460,19.531250
1305.000000,-0.009213,0.009668,21.273802,19.531250
1306.000000,-0.006466,0.009654,21.288973,19.531250
1307.000000,-0.006542,0.009660,21.303347,19.531250
1308.000000,-0.006008,0.009672,21.315912,19.531250
1309.000000,-0.010891,0.009669,21.328724,19.531250
1310.000000,-0.011807,0.009661,21.339308,19.531250
1311.000000,-0.014630,0.009676,21.347460,19.531250
1312.000000,-0.012188,0.009703,21.354889,19.531250
1313.000000,-0.010357,0.009741,21.361094,19.531250
1314.000000,-0.011425,0.009743,21.365461,19.531250
1315.000000,-0.006695,0.009762,21.367851,19.531250
1316.000000,-0.005703,0.009752,21.368532,19.531250
1317.000000,-0.007076,0.009740,21.368382,19.531250
1318.000000,-0.006771,0.009746,21.364197,19.531250
1319.000000,-0.012036,0.009755,21.358400,19.531250
1320.000000,-0.012951,0.009794,21.352102,19.531250
1321.000000,-0.010586,0.009848,21.345171,19.531250
1322.000000,-0.010967,0.009854,21.340235,19.531250
1323.000000,-0.009289,0.009848,21.337931,19.531250
1324.000000,-0.008068,0.009814,21.339077,19.531250
1325.000000,-0.003948,0.009803,21.344925,19.531250
1326.000000,-0.003185,0.009771,21.351921,19.531250
1327.000000,-0.003796,0.009729,21.362585,19.531250
1328.000000,-0.006008,0.009708,21.376341,19.531250
1329.000000,-0.006619,0.009700,21.393337,19.531250
1330.000000,-0.008297,0.009682,21.412634,19.531250
1331.000000,-0.011044,0.009687,21.428810,19.531250
1332.000000,-0.007687,0.009713,21.445583,19.531250
1333.000000,-0.005169,0.009689,21.464846,19.531250
1334.000000,-0.005856,0.009569,21.486553,19.531250
1335.000000,-0.004406,0.009502,21.507744,19.531250
1336.000000,-0.000439,0.009451,21.524725,19.531250
1337.000000,-0.000896,0.009436,21.534676,19.531250
1338.000000,-0.001888,0.009412,21.538321,19.531250
1339.000000,-0.006695,0.009391,21.535555,19.531250
1340.000000,-0.006924,0.009342,21.527624,19.531250
1341.000000,-0.007382,0.009288,21.515928,19.531250
1342.000000,-0.007000,0.009244,21.501837,19.531250
1343.000000,-0.004711,0.009227,21.485727,19.531250
1344.000000,-0.004482,0.009205,21.467731,19.531250
1345.000000,-0.008907,0.009164,21.447582,19.531250
1346.000000,-0.006237,0.009105,21.426189,19.531250
1347.000000,-0.003796,0.009039,21.407097,19.531250
1348.000000,-0.005550,0.009009,21.389940,19.531250
1349.000000,-0.005550,0.009015,21.373392,19.531250
1350.000000,-0.005016,0.009000,21.363241,19.531250
1351.000000,-0.009060,0.008978,21.359776,19.531250
1352.000000,-0.010204,0.008926,21.362860,19.531250
1353.000000,-0.013256,0.008900,21.370718,19.531250
1354.000000,-0.015774,0.008930,21.382956,19.531250
1355.000000,-0.011273,0.009007,21.398136,19.531250
1356.000000,-0.010586,0.009052,21.413591,19.531250
1357.000000,-0.007305,0.009096,21.427691,19.531250
1358.000000,-0.007076,0.009102,21.440077,19.531250
1359.000000,-0.014630,0.009093,21.450426,19.531250
1360.000000,-0.012646,0.009167,21.459845,19.531250
1361.000000,-0.015698,0.009188,21.472717,19.531250
1362.000000,-0.014096,0.009294,21.483683,19.531250
1363.000000,-0.018902,0.009374,21.493608,19.531250
1364.000000,-0.016995,0.009502,21.499561,19.531250
1365.000000,-0.014782,0.009598,21.502264,19.531250
1366.000000,-0.010204,0.009679,21.503717,19.531250
1367.000000,-0.010891,0.009708,21.502283,19.531250
1368.000000,-0.014630,0.009749,21.499634,19.531250
1369.000000,-0.016918,0.009832,21.495836,19.531250
1370.000000,-0.011807,0.009924,21.491343,19.531250
1371.000000,-0.014935,0.009924,21.486952,19.531250
1372.000000,-0.015469,0.009964,21.483318,19.531250
1373.000000,-0.014401,0.010037,21.479708,19.531250
1374.000000,-0.013943,0.010087,21.476873,19.531250
1375.000000,-0.011349,0.010128,21.473095,19.531250
1376.000000,-0.007534,0.010142,21.469501,19.531250
1377.000000,-0.008297,0.010127,21.465330,19.531250
1378.000000,-0.008450,0.010113,21.460072,19.531250
1379.000000,-0.011425,0.010102,21.453840,19.531250
1380.000000,-0.012188,0.010089,21.448570,19.531250
1381.000000,-0.010739,0.010091,21.442951,19.531250
1382.000000,-0.009365,0.010080,21.437895,19.531250
1383.000000,-0.009594,0.010041,21.432251,19.531250
1384.000000,-0.009060,0.009983,21.426939,19.531250
1385.000000,-0.008145,0.010001,21.420998,19.531250
1386.000000,-0.005856,0.010008,21.412828,19.531250
1387.000000,-0.002651,0.009973,21.403204,19.531250
1388.000000,-0.010967,0.009927,21.391886,19.531250
1389.000000,-0.009213,0.009957,21.382429,19.531250
1390.000000,-0.006085,0.009949,21.371498,19.531250
1391.000000,-0.011349,0.009918,21.363152,19.531250
1392.000000,-0.014019,0.009910,21.355042,19.531250
1393.000000,-0.011501,0.009956,21.345682,19.531250
1394.000000,-0.008373,0.009991,21.337746,19.531250
1395.000000,-0.010357,0.009950,21.330603,19.531250
1396.000000,-0.006161,0.009959,21.322275,19.531250
1397.000000,-0.009899,0.009975,21.313824,19.531250
1398.000000,-0.006924,0.010009,21.305624,19.531250
1399.000000,-0.010281,0.010022,21.295982,19.531250
1400.000000,-0.018597,0.010020,21.287178,19.531250
1401.000000,-0.017529,0.010125,21.281504,19.531250
1402.000000,-0.019284,0.010206,21.276943,19.531250
1403.000000,-0.020504,0.010338,21.273619,19.531250
1404.000000,-0.017681,0.010491,21.272348,19.531250
1405.000000,-0.014858,0.010595,21.270838,19.531250
1406.000000,-0.013485,0.010658,21.269844,19.531250
1407.000000,-0.010281,0.010724,21.265837,19.531250
1408.000000,-0.013790,0.010753,21.261589,19.531250
1409.000000,-0.018063,0.010825,21.259735,19.531250
1410.000000,-0.017224,0.010920,21.258419,19.531250
1411.000000,-0.018292,0.010992,21.257744,19.531250
1412.000000,-0.016461,0.011047,21.258055,19.531250
1413.000000,-0.012722,0.011102,21.260050,19.531250
1414.000000,-0.014096,0.011126,21.263830,19.531250
1415.000000,-0.013256,0.011157,21.271074,19.531250
1416.000000,-0.012188,0.011216,21.275999,19.531250
1417.000000,-0.012036,0.011267,21.275772,19.531250
1418.000000,-0.011349,0.011309,21.277405,19.531250
1419.000000,-0.014782,0.011346,21.277319,19.531250
1420.000000,-0.015011,0.011378,21.281164,19.531250
1421.000000,-0.015545,0.011403,21.286987,19.531250
1422.000000,-0.014172,0.011460,21.293102,19.531250
1423.000000,-0.016842,0.011495,21.301298,19.531250
1424.000000,-0.012951,0.011581,21.310011,19.531250
1425.000000,-0.011120,0.011625,21.317953,19.531250
1426.000000,-0.010433,0.011671,21.327257,19.531250
1427.000000,-0.012341,0.011714,21.334179,19.531250
1428.000000,-0.012341,0.011772,21.339376,19.531250
1429.000000,-0.015469,0.011822,21.349850,19.531250
1430.000000,-0.014630,0.011904,21.358847,19.531250
1431.000000,-0.016003,0.011965,21.367851,19.531250
1432.000000,-0.013561,0.012021,21.377882,19.531250
1433.000000,-0.013180,0.012072,21.391378,19.531250
1434.000000,-0.014782,0.012133,21.405729,19.531250
1435.000000,-0.013256,0.012209,21.419277,19.531250
1436.000000,-0.008221,0.012273,21.430960,19.531250
1437.000000,-0.011654,0.012300,21.442904,19.531250
1438.000000,-0.009670,0.012355,21.452579,19.531250
1439.000000,-0.013027,0.012391,21.459820,19.531250
1440.000000,-0.014172,0.012442,21.466408,19.531250
1441.000000,-0.014096,0.012503,21.471781,19.531250
1442.000000,-0.012951,0.012560,21.475349,19.531250
1443.000000,-0.014248,0.012608,21.476952,19.531250
1444.000000,-0.011120,0.012679,21.476885,19.531250
1445.000000,-0.011120,0.012720,21.475979,19.531250
1446.000000,-0.010967,0.012737,21.471029,19.531250
1447.000000,-0.007534,0.012769,21.464483,19.531250
1448.000000,-0.008450,0.012786,21.457460,19.531250
1449.000000,-0.015316,0.012802,21.449842,19.531250
1450.000000,-0.015087,0.012881,21.444260,19.531250
1451.000000,-0.019818,0.012959,21.441345,19.531250
1452.000000,-0.018597,0.013079,21.441935,19.531250
1453.000000,-0.017224,0.013171,21.447273,19.531250
1454.000000,-0.016613,0.013217,21.453798,19.531250
1455.000000,-0.016308,0.013227,21.464037,19.531250
1456.000000,-0.015850,0.013279,21.477415,19.531250
1457.000000,-0.017224,0.013332,21.494087,19.531250
1458.000000,-0.016308,0.013422,21.513100,19.531250
1459.000000,-0.026074,0.013503,21.529013,19.531250
1460.000000,-0.028286,0.013674,21.545565,19.531250
1461.000000,-0.026379,0.013906,21.564653,19.531250
1462.000000,-0.026455,0.014067,21.586231,19.531250
1463.000000,-0.025158,0.014244,21.607330,19.531250
1464.000000,-0.023861,0.014340,21.624239,19.531250
1465.000000,-0.024395,0.014438,21.634127,19.531250
1466.000000,-0.020047,0.014568,21.637722,19.531250
1467.000000,-0.015087,0.014669,21.634918,19.531250
1468.000000,-0.013790,0.014707,21.626959,19.531250
1469.000000,-0.014324,0.014698,21.615274,19.531250
1470.000000,-0.014630,0.014671,21.601221,19.531250
1471.000000,-0.012493,0.014696,21.585173,19.531250
1472.000000,-0.006542,0.014673,21.567282,19.531250
1473.000000,0.001164,0.014606,21.547274,19.531250
1474.000000,-0.004253,0.014536,21.526052,19.531250
1475.000000,0.004597,0.014475,21.507179,19.531250
1476.000000,0.017796,0.014438,21.490292,19.531250
1477.000000,0.026341,0.014527,21.474056,19.531250
1478.000000,0.036793,0.014741,21.464287,19.531250
1479.000000,0.043278,0.015170,21.461271,19.531250
1480.000000,0.044347,0.015734,21.464876,19.531250
1481.000000,0.047017,0.016301,21.473320,19.531250
1482.000000,0.048161,0.016932,21.486195,19.531250
1483.000000,0.049535,0.017578,21.502052,19.531250
1484.000000,0.055562,0.018238,21.518213,19.531250
1485.000000,0.054875,0.019044,21.533051,19.531250
1486.000000,0.065404,0.019802,21.546225,19.531250
1487.000000,0.070058,0.020846,21.557409,19.531250
1488.000000,0.067540,0.021990,21.567745,19.531250
1489.000000,0.075856,0.022978,21.581554,19.531250
1490.000000,0.072728,0.024180,21.593479,19.531250
1491.000000,0.060292,0.025243,21.604395,19.531250
1492.000000,0.051366,0.025928,21.611340,19.531250
1493.000000,0.042058,0.026394,21.615053,19.531250
1494.000000,0.019398,0.026703,21.617594,19.531250
1495.000000,0.000935,0.026760,21.617235,19.531250
1496.000000,-0.019207,0.026740,21.615757,19.531250
1497.000000,-0.026989,0.026802,21.613180,19.531250
1498.000000,-0.049344,0.026919,21.609966,19.531250
1499.000000,-0.068341,0.027359,21.606915,19.531250
1500.000000,-0.075437,0.028181,21.604635,19.531250
1501.000000,-0.086652,0.029114,21.602377,19.531250
1502.000000,-0.084516,0.030325,21.600897,19.531250
1503.000000,-0.096952,0.031422,21.598476,19.531250
1504.000000,-0.133650,0.032820,21.596220,19.531250
1505.000000,-0.166304,0.035392,21.593533,19.531250
1506.000000,-0.199569,0.039077,21.589823,19.531250
1507.000000,-0.213607,0.043857,21.585228,19.531250
1508.000000,-0.207504,0.048772,21.581604,19.531250
1509.000000,-0.200790,0.052984,21.577667,19.531250
1510.000000,-0.203613,0.056633,21.574148,19.531250
1511.000000,-0.192016,0.060157,21.570097,19.531250
1512.000000,-0.175307,0.063121,21.566309,19.531250
1513.000000,-0.159743,0.065489,21.561983,19.531250
1514.000000,-0.150282,0.067397,21.555391,19.531250
1515.000000,-0.144789,0.069038,21.547333,19.531250
1516.000000,-0.126173,0.070528,21.537626,19.531250
1517.000000,-0.119993,0.071637,21.529881,19.531250
1518.000000,-0.099317,0.072625,21.520590,19.531250
1519.000000,-0.081083,0.073292,21.513880,19.531250
1520.000000,-0.050870,0.073724,21.507322,19.531250
1521.000000,-0.011273,0.073884,21.499437,19.531250
1522.000000,0.019474,0.073877,21.492928,19.531250
1523.000000,0.034352,0.073889,21.487164,19.531250
1524.000000,0.054189,0.073949,21.480080,19.531250
1525.000000,0.078069,0.074136,21.472900,19.531250
1526.000000,0.092794,0.074538,21.465960,19.531250
1527.000000,0.107900,0.075106,21.457502,19.531250
1528.000000,0.114462,0.075867,21.450024,19.531250
1529.000000,0.121557,0.076716,21.445513,19.531250
1530.000000,0.122091,0.077658,21.441807,19.531250
1531.000000,0.121405,0.078598,21.439295,19.531250
1532.000000,0.125753,0.079514,21.438597,19.531250
1533.000000,0.127432,0.080491,21.437504,19.531250
1534.000000,0.126135,0.081483,21.436768,19.531250
1535.000000,0.121862,0.082440,21.432953,19.531250
1536.000000,0.118582,0.083325,21.428949,19.531250
1537.000000,0.107137,0.084161,21.427299,19.531250
1538.000000,0.096456,0.084832,21.426052,19.531250
1539.000000,0.079595,0.085373,21.425362,19.531250
1540.000000,0.065251,0.085733,21.425188,19.531250
1541.000000,0.056020,0.085970,21.426466,19.531250
1542.000000,0.045796,0.086140,21.429533,19.531250
1543.000000,0.035496,0.086252,21.435781,19.531250
1544.000000,0.026265,0.086313,21.439600,19.531250
1545.000000,0.020314,0.086346,21.438272,19.531250
1546.000000,0.012608,0.086363,21.438927,19.531250
1547.000000,0.004292,0.086365,21.437920,19.531250
1548.000000,-0.002270,0.086363,21.441099,19.531250
1549.000000,-0.011883,0.086359,21.446083,19.531250
1550.000000,-0.017300,0.086354,21.451342,19.531250
1551.000000,-0.022107,0.086358,21.458605,19.531250
1552.000000,-0.021420,0.086363,21.466362,19.531250
1553.000000,-0.020123,0.086370,21.473501,19.531250
1554.000000,-0.027676,0.086376,21.482191,19.531250
1555.000000,-0.030728,0.086405,21.488209,19.531250
1556.000000,-0.025387,0.086444,21.492834,19.531250
1557.000000,-0.029583,0.086467,21.503042,19.531250
1558.000000,-0.025998,0.086500,21.511858,19.531250
1559.000000,-0.024014,0.086524,21.520647,19.531250
1560.000000,-0.022259,0.086518,21.530184,19.531250
1561.000000,-0.024090,0.086500,21.542761,19.531250
1562.000000,-0.022259,0.086494,21.555790,19.531250
1563.000000,-0.021649,0.086482,21.567583,19.531250
1564.000000,-0.022335,0.086472,21.577093,19.531250
1565.000000,-0.017453,0.086468,21.586344,19.531250
1566.000000,-0.015927,0.086451,21.592833,19.531250
1567.000000,-0.011959,0.086443,21.596087,19.531250
1568.000000,-0.009670,0.086438,21.597883,19.531250
1569.000000,-0.011883,0.086432,21.597881,19.531250
1570.000000,-0.011425,0.086429,21.594635,19.531250
1571.000000,-0.014477,0.086424,21.589069,19.531250
1572.000000,-0.013790,0.086427,21.582249,19.531250
1573.000000,-0.005703,0.086435,21.575304,19.531250
1574.000000,-0.004406,0.086437,21.564714,19.531250
1575.000000,-0.004788,0.086437,21.554338,19.531250
1576.000000,-0.002956,0.086437,21.544628,19.531250
1577.000000,-0.004635,0.086420,21.536058,19.531250
1578.000000,-0.002346,0.086381,21.530264,19.531250
1579.000000,-0.006695,0.086303,21.529242,19.531250
1580.000000,-0.004253,0.086197,21.533224,19.531250
1581.000000,-0.002117,0.086083,21.542116,19.531250
1582.000000,-0.001659,0.085955,21.552427,19.531250
1583.000000,-0.002728,0.085820,21.566055,19.531250
1584.000000,-0.003185,0.085678,21.583469,19.531250
1585.000000,-0.004330,0.085498,21.605637,19.531250
1586.000000,0.000935,0.085323,21.630093,19.531250
1587.000000,0.001392,0.085072,21.650417,19.531250
1588.000000,0.000477,0.084783,21.668865,19.531250
1589.000000,0.000324,0.084514,21.687099,19.531250
1590.000000,-0.000515,0.084172,21.705313,19.531250
1591.000000,-0.004559,0.083858,21.720434,19.531250
1592.000000,-0.003567,0.083642,21.729183,19.531250
1593.000000,-0.001049,0.083485,21.729540,19.531250
1594.000000,-0.004253,0.083379,21.722889,19.531250
1595.000000,0.000324,0.083357,21.709229,19.531250
1596.000000,-0.000362,0.083357,21.689693,19.531250
1597.000000,-0.002270,0.083335,21.667366,19.531250
1598.000000,0.000858,0.083292,21.642097,19.531250
1599.000000,-0.002651,0.083145,21.616415,19.531250
1600.000000,-0.008602,0.082865,21.591022,19.531250
1601.000000,-0.007839,0.082525,21.566868,19.531250
1602.000000,-0.007229,0.082073,21.546003,19.531250
1603.000000,-0.010433,0.081639,21.531006,19.531250
1604.000000,-0.009213,0.081068,21.519514,19.531250
1605.000000,-0.009823,0.079964,21.510818,19.531250
1606.000000,-0.007763,0.078222,21.511030,19.531250
1607.000000,-0.007153,0.075637,21.518890,19.531250
1608.000000,-0.004559,0.072562,21.533804,19.531250
1609.000000,-0.006313,0.069533,21.552727,19.531250
1610.000000,-0.009060,0.066574,21.575396,19.531250
1611.000000,-0.011654,0.063391,21.599714,19.531250
1612.000000,-0.011578,0.060424,21.622885,19.531250
1613.000000,-0.009976,0.057836,21.643511,19.531250
1614.000000,-0.008907,0.055595,21.661081,19.531250
1615.000000,-0.009442,0.053533,21.675119,19.531250
1616.000000,-0.005169,0.051547,21.686773,19.531250
1617.000000,-0.006619,0.049981,21.700327,19.531250
1618.000000,-0.006313,0.048524,21.710693,19.531250
1619.000000,-0.008831,0.047501,21.719006,19.531250
1620.000000,-0.011730,0.046812,21.722788,19.531250
1621.000000,-0.009976,0.046550,21.723375,19.531250
1622.000000,-0.009747,0.046547,21.722630,19.531250
1623.000000,-0.011273,0.046516,21.718954,19.531250
1624.000000,-0.011044,0.046403,21.714359,19.531250
1625.000000,-0.007076,0.046099,21.709038,19.531250
1626.000000,-0.001965,0.045438,21.703100,19.531250
1627.000000,-0.006924,0.044481,21.697598,19.531250
1628.000000,-0.010128,0.043158,21.693045,19.531250
1629.000000,-0.009289,0.041625,21.688890,19.531250
1630.000000,-0.010586,0.039821,21.686085,19.531250
1631.000000,-0.009213,0.037918,21.682337,19.531250
1632.000000,-0.010967,0.035934,21.679089,19.531250
1633.000000,-0.008450,0.033680,21.675665,19.531250
1634.000000,-0.013485,0.031187,21.670902,19.531250
1635.000000,-0.011273,0.028554,21.665680,19.531250
1636.000000,-0.006390,0.025848,21.661015,19.531250
1637.000000,-0.008297,0.022976,21.655510,19.531250
1638.000000,-0.007076,0.020342,21.650438,19.531250
1639.000000,-0.007610,0.017924,21.644613,19.531250
1640.000000,-0.012264,0.016078,21.638729,19.531250
1641.000000,-0.019818,0.014746,21.632113,19.531250
1642.000000,-0.014630,0.013783,21.623499,19.531250
1643.000000,-0.012570,0.013082,21.613544,19.531250
1644.000000,-0.012646,0.012654,21.602041,19.531250
1645.000000,-0.013714,0.012443,21.592154,19.531250
1646.000000,-0.011273,0.012352,21.580347,19.531250
1647.000000,-0.010204,0.012339,21.570440,19.531250
1648.000000,-0.009594,0.012374,21.560158,19.531250
1649.000000,-0.013104,0.012409,21.548689,19.531250
1650.000000,-0.012570,0.012421,21.538439,19.531250
1651.000000,-0.016461,0.012364,21.528570,19.531250
1652.000000,-0.016461,0.012276,21.518009,19.531250
1653.000000,-0.013561,0.012199,21.507311,19.531250
1654.000000,-0.016232,0.012108,21.496174,19.531250
1655.000000,-0.010967,0.011899,21.483776,19.531250
1656.000000,-0.010662,0.011548,21.471767,19.531250
1657.000000,-0.011425,0.011315,21.461687,19.531250
1658.000000,-0.010510,0.010981,21.452332,19.531250
1659.000000,-0.013561,0.010721,21.443552,19.531250
1660.000000,-0.011883,0.010536,21.436316,19.531250
1661.000000,-0.010281,0.010367,21.428608,19.531250
1662.000000,-0.012417,0.010135,21.421175,19.531250
1663.000000,-0.013561,0.009965,21.411602,19.531250
1664.000000,-0.011578,0.009821,21.401911,19.531250
1665.000000,-0.013027,0.009634,21.393637,19.531250
1666.000000,-0.012036,0.009564,21.385624,19.531250
1667.000000,-0.010204,0.009507,21.377478,19.531250
1668.000000,-0.006771,0.009486,21.369413,19.531250
1669.000000,-0.010204,0.009461,21.362522,19.531250
1670.000000,-0.009823,0.009441,21.356894,19.531250
1671.000000,-0.012799,0.009423,21.353189,19.531250
1672.000000,-0.011730,0.009399,21.348320,19.531250
1673.000000,-0.013714,0.009371,21.340538,19.531250
1674.000000,-0.011196,0.009454,21.333784,19.531250
1675.000000,-0.007687,0.009510,21.326233,19.531250
1676.000000,-0.002956,0.009529,21.320568,19.531250
1677.000000,-0.006466,0.009529,21.316010,19.531250
1678.000000,-0.006085,0.009539,21.311726,19.531250
1679.000000,-0.008755,0.009556,21.308435,19.531250
1680.000000,-0.009747,0.009572,21.305820,19.531250
1681.000000,-0.011273,0.009612,21.303274,19.531250
1682.000000,-0.010891,0.009676,21.301291,19.531250
1683.000000,-0.006161,0.009736,21.297977,19.531250
1684.000000,-0.003185,0.009751,21.294289,19.531250
1685.000000,-0.005703,0.009751,21.293537,19.531250
1686.000000,-0.003033,0.009758,21.292088,19.531250
1687.000000,-0.000134,0.009763,21.290571,19.531250
1688.000000,-0.003491,0.009762,21.289242,19.531250
1689.000000,-0.004940,0.009768,21.289396,19.531250
1690.000000,-0.005779,0.009780,21.289768,19.531250
1691.000000,-0.008907,0.009797,21.289547,19.531250
1692.000000,-0.007000,0.009827,21.288553,19.531250
1693.000000,-0.002499,0.009845,21.287514,19.531250
1694.000000,-0.003872,0.009848,21.285162,19.531250
1695.000000,-0.004635,0.009846,21.281132,19.531250
1696.000000,-0.004482,0.009857,21.276072,19.531250
1697.000000,-0.005474,0.009867,21.270052,19.531250
1698.000000,-0.002422,0.009880,21.262360,19.531250
1699.000000,-0.002193,0.009883,21.253620,19.531250
1700.000000,-0.005245,0.009881,21.244230,19.531250
1701.000000,-0.006390,0.009858,21.235094,19.531250
1702.000000,-0.006466,0.009847,21.224173,19.531250
1703.000000,-0.010357,0.009842,21.213634,19.531250
1704.000000,-0.011120,0.009841,21.203550,19.531250
1705.000000,-0.007763,0.009861,21.193975,19.531250
1706.000000,-0.009136,0.009843,21.185684,19.531250
1707.000000,-0.005856,0.009854,21.179956,19.531250
1708.000000,-0.005550,0.009846,21.176970,19.531250
1709.000000,-0.007229,0.009851,21.176695,19.531250
1710.000000,-0.008679,0.009857,21.177223,19.531250
1711.000000,-0.013485,0.009854,21.179583,19.531250
1712.000000,-0.014553,0.009877,21.183987,19.531250
1713.000000,-0.013943,0.009916,21.191053,19.531250
1714.000000,-0.012799,0.009964,21.199236,19.531250
1715.000000,-0.012036,0.010006,21.205442,19.531250
1716.000000,-0.008984,0.010034,21.210579,19.531250
1717.000000,-0.010510,0.010061,21.215521,19.531250
1718.000000,-0.009136,0.010094,21.220579,19.531250
1719.000000,-0.010739,0.010116,21.224094,19.531250
1720.000000,-0.011501,0.010134,21.224386,19.531250
1721.000000,-0.012646,0.010132,21.220491,19.531250
1722.000000,-0.010662,0.010161,21.213129,19.531250
1723.000000,-0.012875,0.010171,21.202106,19.531250
1724.000000,-0.013485,0.010190,21.188053,19.531250
1725.000000,-0.011425,0.010219,21.172466,19.531250
1726.000000,-0.010586,0.010258,21.155376,19.531250
1727.000000,-0.008755,0.010311,21.138060,19.531250
1728.000000,-0.005932,0.010325,21.120865,19.531250
1729.000000,-0.008373,0.010292,21.104321,19.531250
1730.000000,-0.011273,0.010284,21.089508,19.531250
1731.000000,-0.012188,0.010291,21.077768,19.531250
1732.000000,-0.012417,0.010322,21.067865,19.531250
1733.000000,-0.010739,0.010339,21.059408,19.531250
1734.000000,-0.009594,0.010360,21.055708,19.531250
1735.000000,-0.006390,0.010317,21.056015,19.531250
1736.000000,-0.008373,0.010275,21.060205,19.531250
1737.000000,-0.011807,0.010289,21.066740,19.531250
1738.000000,-0.012722,0.010323,21.075352,19.531250
1739.000000,-0.012264,0.010377,21.085022,19.531250
1740.000000,-0.012417,0.010422,21.094200,19.531250
1741.000000,-0.010739,0.010423,21.102161,19.531250
1742.000000,-0.009289,0.010289,21.108627,19.531250
1743.000000,-0.011807,0.010227,21.113285,19.531250
1744.000000,-0.012188,0.010218,21.116697,19.531250
1745.000000,-0.013104,0.010213,21.121443,19.531250
1746.000000,-0.011120,0.010204,21.124760,19.531250
1747.000000,-0.006695,0.010203,21.127182,19.531250
1748.000000,-0.007534,0.010174,21.127480,19.531250
1749.000000,-0.017453,0.010156,21.126333,19.531250
1750.000000,-0.013867,0.010222,21.124390,19.531250
1751.000000,-0.015087,0.010238,21.121134,19.531250
1752.000000,-0.012646,0.010217,21.117416,19.531250
1753.000000,-0.009976,0.010163,21.113504,19.531250
1754.000000,-0.009213,0.010121,21.109364,19.531250
1755.000000,-0.010128,0.010032,21.105776,19.531250
1756.000000,-0.009899,0.010024,21.103344,19.531250
1757.000000,-0.010433,0.010016,21.101704,19.531250
1758.000000,-0.007916,0.010005,21.100983,19.531250
1759.000000,-0.011730,0.009981,21.100006,19.531250
1760.000000,-0.012036,0.009958,21.099661,19.531250
1761.000000,-0.010128,0.009960,21.099270,19.531250
1762.000000,-0.008450,0.009958,21.098240,19.531250
1763.000000,-0.009670,0.009916,21.097273,19.531250
1764.000000,-0.010433,0.009871,21.097454,19.531250
1765.000000,-0.009976,0.009858,21.097748,19.531250
1766.000000,-0.007229,0.009822,21.098761,19.531250
1767.000000,-0.003719,0.009775,21.099880,19.531250
1768.000000,-0.005779,0.009729,21.101719,19.531250
1769.000000,-0.007534,0.009722,21.103115,19.531250
1770.000000,-0.007610,0.009698,21.103559,19.531250
1771.000000,-0.012188,0.009678,21.103621,19.531250
1772.000000,-0.010204,0.009670,21.102715,19.531250
1773.000000,-0.006237,0.009653,21.102953,19.531250
1774.000000,-0.007382,0.009575,21.102943,19.531250
1775.000000,-0.006161,0.009538,21.104252,19.531250
1776.000000,-0.003567,0.009527,21.105873,19.531250
1777.000000,-0.007839,0.009529,21.107136,19.531250
1778.000000,-0.005627,0.009540,21.109436,19.531250
1779.000000,-0.006466,0.009537,21.112453,19.531250
1780.000000,-0.007992,0.009518,21.115389,19.531250
1781.000000,-0.011196,0.009502,21.117962,19.531250
1782.000000,-0.011425,0.009501,21.120335,19.531250
1783.000000,-0.012341,0.009507,21.121948,19.531250
1784.000000,-0.011501,0.009567,21.123373,19.531250
1785.000000,-0.005550,0.009631,21.126345,19.531250
1786.000000,-0.005398,0.009630,21.130787,19.531250
1787.000000,-0.005398,0.009640,21.135612,19.531250
1788.000000,-0.006771,0.009656,21.142294,19.531250
1789.000000,-0.011120,0.009673,21.148548,19.531250
1790.000000,-0.012570,0.009724,21.154758,19.531250
1791.000000,-0.013638,0.009788,21.159050,19.531250
1792.000000,-0.013104,0.009842,21.162754,19.531250
1793.000000,-0.011120,0.009904,21.167360,19.531250
1794.000000,-0.012188,0.009964,21.172163,19.531250
1795.000000,-0.006542,0.010030,21.176682,19.531250
1796.000000,-0.008373,0.010041,21.181715,19.531250
1797.000000,-0.011273,0.010066,21.187767,19.531250
1798.000000,-0.006390,0.010114,21.194370,19.531250
1799.000000,-0.008145,0.010131,21.202398,19.531250
1800.000000,-0.011196,0.010162,21.208925,19.531250
1801.000000,-0.012341,0.010210,21.212427,19.531250
1802.000000,-0.012570,0.010264,21.216415,19.531250
1803.000000,-0.011959,0.010320,21.219187,19.531250
1804.000000,-0.010815,0.010338,21.222965,19.531250
1805.000000,-0.010586,0.010335,21.227324,19.531250
1806.000000,-0.009060,0.010360,21.231686,19.531250
1807.000000,-0.007763,0.010359,21.236652,19.531250
1808.000000,-0.008221,0.010371,21.241884,19.531250
1809.000000,-0.008068,0.010389,21.246742,19.531250
1810.000000,-0.006161,0.010395,21.251513,19.531250
1811.000000,-0.011196,0.010377,21.254808,19.531250
1812.000000,-0.015850,0.010350,21.257191,19.531250
1813.000000,-0.011501,0.010369,21.261749,19.531250
1814.000000,-0.010052,0.010339,21.265230,19.531250
1815.000000,-0.009060,0.010309,21.268175,19.531250
1816.000000,-0.008145,0.010278,21.270975,19.531250
1817.000000,-0.008297,0.010271,21.274881,19.531250
1818.000000,-0.006771,0.010251,21.278601,19.531250
1819.000000,-0.009442,0.010233,21.281445,19.531250
1820.000000,-0.013638,0.010220,21.283270,19.531250
1821.000000,-0.011959,0.010246,21.284607,19.531250
1822.000000,-0.011730,0.010238,21.284489,19.531250
1823.000000,-0.010586,0.010249,21.282154,19.531250
1824.000000,-0.012417,0.010223,21.278257,19.531250
1825.000000,-0.010281,0.010210,21.273203,19.531250
1826.000000,-0.003338,0.010197,21.265820,19.531250
1827.000000,-0.006542,0.010148,21.257303,19.531250
1828.000000,-0.008145,0.010131,21.248625,19.531250
1829.000000,-0.008373,0.010147,21.240339,19.531250
1830.000000,-0.009823,0.010147,21.230047,19.531250
1831.000000,-0.016079,0.010131,21.221205,19.531250
1832.000000,-0.012493,0.010186,21.213465,19.531250
1833.000000,-0.007153,0.010187,21.207096,19.531250
1834.000000,-0.006924,0.010155,21.202250,19.531250
1835.000000,-0.007839,0.010133,21.200674,19.531250
1836.000000,-0.003491,0.010143,21.202188,19.531250
1837.000000,-0.005550,0.010115,21.206242,19.531250
1838.000000,-0.000668,0.010061,21.210979,19.531250
1839.000000,-0.008145,0.009980,21.217062,19.531250
1840.000000,-0.012188,0.009938,21.224899,19.531250
1841.000000,-0.010662,0.009935,21.235479,19.531250
1842.000000,-0.007382,0.009935,21.246656,19.531250
1843.000000,-0.006237,0.009919,21.254660,19.531250
1844.000000,-0.007382,0.009868,21.259752,19.531250
1845.000000,-0.008602,0.009820,21.262838,19.531250
1846.000000,-0.007687,0.009770,21.264421,19.531250
1847.000000,-0.003567,0.009737,21.262640,19.531250
1848.000000,-0.003567,0.009721,21.256256,19.531250
1849.000000,-0.002880,0.009698,21.245029,19.531250
1850.000000,-0.006466,0.009544,21.230019,19.531250
1851.000000,-0.009518,0.009465,21.210907,19.531250
1852.000000,-0.010739,0.009392,21.188540,19.531250
1853.000000,-0.007687,0.009368,21.165039,19.531250
1854.000000,-0.009823,0.009347,21.139616,19.531250
1855.000000,-0.008679,0.009353,21.115099,19.531250
1856.000000,-0.007458,0.009338,21.091694,19.531250
1857.000000,-0.007229,0.009316,21.070961,19.531250
1858.000000,-0.004177,0.009285,21.055496,19.531250
1859.000000,-0.003948,0.009261,21.045429,19.531250
1860.000000,-0.005398,0.009195,21.038445,19.531250
1861.000000,-0.007153,0.009132,21.034552,19.531250
1862.000000,-0.009289,0.009103,21.037355,19.531250
1863.000000,-0.010891,0.009112,21.045004,19.531250
1864.000000,-0.010815,0.009125,21.057293,19.531250
1865.000000,-0.009442,0.009130,21.071838,19.531250
1866.000000,-0.007000,0.009124,21.088032,19.531250
1867.000000,-0.005016,0.009122,21.104794,19.531250
1868.000000,-0.003567,0.009128,21.120514,19.531250
1869.000000,-0.006390,0.009117,21.134754,19.531250
1870.000000,-0.007534,0.009108,21.147150,19.531250
1871.000000,-0.010662,0.009108,21.157068,19.531250
1872.000000,-0.008221,0.009089,21.164959,19.531250
1873.000000,-0.005169,0.009068,21.173544,19.531250
1874.000000,-0.008450,0.009062,21.180056,19.531250
1875.000000,-0.011959,0.009071,21.185244,19.531250
1876.000000,-0.007000,0.009129,21.187803,19.531250
1877.000000,-0.007992,0.009149,21.188742,19.531250
1878.000000,-0.003796,0.009150,21.188818,19.531250
1879.000000,-0.006390,0.009141,21.187582,19.531250
1880.000000,-0.008373,0.009140,21.186008,19.531250
1881.000000,-0.009747,0.009143,21.184511,19.531250
1882.000000,-0.009060,0.009127,21.183146,19.531250
1883.000000,-0.011196,0.009100,21.182688,19.531250
1884.000000,-0.015087,0.009085,21.183580,19.531250
1885.000000,-0.011196,0.009138,21.185474,19.531250
1886.000000,-0.005779,0.009189,21.188627,19.531250
1887.000000,-0.006390,0.009192,21.191614,19.531250
1888.000000,-0.007305,0.009198,21.195265,19.531250
1889.000000,-0.011196,0.009202,21.199303,19.531250
1890.000000,-0.009976,0.009203,21.202837,19.531250
1891.000000,-0.014706,0.009171,21.206940,19.531250
1892.000000,-0.014401,0.009188,21.212477,19.531250
1893.000000,-0.012722,0.009207,21.218439,19.531250
1894.000000,-0.013180,0.009228,21.225483,19.531250
1895.000000,-0.014019,0.009241,21.232729,19.531250
1896.000000,-0.010204,0.009324,21.240595,19.531250
1897.000000,-0.009823,0.009342,21.248058,19.531250
1898.000000,-0.006313,0.009326,21.254194,19.531250
1899.000000,-0.011654,0.009326,21.260260,19.531250
1900.000000,-0.011540,0.009363,21.265614,19.531250
1901.000000,-0.014515,0.009367,21.272478,19.531250
1902.000000,-0.011692,0.009398,21.279419,19.531250
1903.000000,-0.009098,0.009387,21.287840,19.531250
1904.000000,-0.014515,0.009355,21.296398,19.531250
1905.000000,-0.010014,0.009404,21.304804,19.531250
1906.000000,-0.008106,0.009398,21.313707,19.531250
1907.000000,-0.010319,0.009389,21.323097,19.531250
1908.000000,-0.009709,0.009414,21.332207,19.531250
1909.000000,-0.006428,0.009428,21.341227,19.531250
1910.000000,-0.004139,0.009416,21.349762,19.531250
1911.000000,-0.008869,0.009405,21.357567,19.531250
1912.000000,-0.014439,0.009380,21.365055,19.531250
1913.000000,-0.012150,0.009357,21.373907,19.531250
1914.000000,-0.009022,0.009365,21.384403,19.531250
1915.000000,-0.008412,0.009355,21.395103,19.531250
1916.000000,-0.006352,0.009349,21.407146,19.531250
1917.000000,-0.007572,0.009335,21.418116,19.531250
1918.000000,-0.008183,0.009328,21.428423,19.531250
1919.000000,-0.008030,0.009340,21.436335,19.531250
1920.000000,-0.009556,0.009327,21.443865,19.531250
1921.000000,-0.010090,0.009276,21.452272,19.531250
1922.000000,-0.012303,0.009253,21.460558,19.531250
1923.000000,-0.012531,0.009261,21.469122,19.531250
1924.000000,-0.013447,0.009285,21.477186,19.531250
1925.000000,-0.012760,0.009299,21.485855,19.531250
1926.000000,-0.011845,0.009330,21.494297,19.531250
1927.000000,-0.007496,0.009399,21.502338,19.531250
1928.000000,-0.008412,0.009406,21.509998,19.531250
1929.000000,-0.011158,0.009409,21.515671,19.531250
1930.000000,-0.009937,0.009437,21.519995,19.531250
1931.000000,-0.013294,0.009439,21.523510,19.531250
1932.000000,-0.016651,0.009395,21.527319,19.531250
1933.000000,-0.014973,0.009459,21.531670,19.531250
1934.000000,-0.014210,0.009550,21.535830,19.531250
1935.000000,-0.011692,0.009631,21.540554,19.531250
1936.000000,-0.009632,0.009670,21.544979,19.531250
1937.000000,-0.006275,0.009711,21.549044,19.531250
1938.000000,-0.008488,0.009716,21.552427,19.531250
1939.000000,-0.008793,0.009752,21.553940,19.531250
1940.000000,-0.011540,0.009758,21.554644,19.531250
1941.000000,-0.014210,0.009750,21.557482,19.531250
1942.000000,-0.010700,0.009795,21.559395,19.531250
1943.000000,-0.009632,0.009826,21.561073,19.531250
1944.000000,-0.006352,0.009853,21.561939,19.531250
1945.000000,-0.006123,0.009846,21.564053,19.531250
1946.000000,-0.011769,0.009828,21.565792,19.531250
1947.000000,-0.005665,0.009868,21.566368,19.531250
1948.000000,-0.005055,0.009878,21.565695,19.531250
1949.000000,-0.006657,0.009884,21.564524,19.531250
1950.000000,-0.009480,0.009902,21.562468,19.531250
1951.000000,-0.008717,0.009927,21.558121,19.531250
1952.000000,-0.010319,0.009919,21.551746,19.531250
1953.000000,-0.008030,0.009915,21.544115,19.531250
1954.000000,-0.007649,0.009918,21.534136,19.531250
1955.000000,-0.008793,0.009898,21.522987,19.531250
1956.000000,-0.004978,0.009899,21.511724,19.531250
1957.000000,-0.006809,0.009884,21.500998,19.531250
1958.000000,-0.005436,0.009881,21.488167,19.531250
1959.000000,-0.005665,0.009887,21.477154,19.531250
1960.000000,-0.013294,0.009895,21.467300,19.531250
1961.000000,-0.011387,0.009970,21.458883,19.531250
1962.000000,-0.009632,0.010009,21.452200,19.531250
1963.000000,-0.010853,0.010012,21.449623,19.531250
1964.000000,-0.010243,0.010012,21.450069,19.531250
1965.000000,-0.009327,0.010006,21.453281,19.531250
1966.000000,-0.006123,0.010005,21.457523,19.531250
1967.000000,-0.002155,0.009999,21.463320,19.531250
1968.000000,-0.008488,0.009989,21.470907,19.531250
1969.000000,-0.015660,0.010018,21.481655,19.531250
1970.000000,-0.011692,0.010120,21.493277,19.531250
1971.000000,-0.011158,0.010159,21.501860,19.531250
1972.000000,-0.009098,0.010164,21.507532,19.531250
1973.000000,-0.008946,0.010172,21.512203,19.531250
1974.000000,-0.011769,0.010198,21.515345,19.531250
1975.000000,-0.009937,0.010231,21.514799,19.531250
1976.000000,-0.006886,0.010209,21.509323,19.531250
1977.000000,-0.008259,0.010209,21.498672,19.531250
1978.000000,-0.007954,0.010211,21.483841,19.531250
1979.000000,-0.008030,0.010235,21.464714,19.531250
1980.000000,-0.010929,0.010246,21.442278,19.531250
1981.000000,-0.010548,0.010270,21.418661,19.531250
1982.000000,-0.009327,0.010278,21.392971,19.531250
1983.000000,-0.012150,0.010280,21.368292,19.531250
1984.000000,-0.009632,0.010291,21.344807,19.531250
1985.000000,-0.009174,0.010226,21.324224,19.531250
1986.000000,-0.007496,0.010205,21.309345,19.531250
1987.000000,-0.005970,0.010217,21.300350,19.531250
1988.000000,-0.007343,0.010214,21.294746,19.531250
1989.000000,-0.005894,0.010214,21.292583,19.531250
1990.000000,-0.006504,0.010170,21.297770,19.531250
1991.000000,-0.010548,0.010142,21.308191,19.531250
1992.000000,-0.013066,0.010090,21.323795,19.531250
1993.000000,-0.012760,0.010072,21.341934,19.531250
1994.000000,-0.011845,0.010072,21.361849,19.531250
1995.000000,-0.008793,0.010055,21.382589,19.531250
1996.000000,-0.006962,0.009996,21.402355,19.531250
1997.000000,-0.004826,0.009968,21.420717,19.531250
1998.000000,-0.004520,0.009931,21.437519,19.531250
1999.000000,-0.008259,0.009922,21.451675,19.531250
2000.000000,-0.012417,0.009887,21.463596,19.531250
2001.000000,-0.009518,0.009898,21.476074,19.531250
2002.000000,-0.012951,0.009837,21.486492,19.531250
2003.000000,-0.014553,0.009853,21.495203,19.531250
2004.000000,-0.014477,0.009918,21.501577,19.531250
2005.000000,-0.010510,0.009918,21.506371,19.531250
2006.000000,-0.009136,0.009923,21.509745,19.531250
2007.000000,-0.006695,0.009932,21.511971,19.531250
2008.000000,-0.007229,0.009901,21.514154,19.531250
2009.000000,-0.011959,0.009879,21.516712,19.531250
2010.000000,-0.012493,0.009931,21.519526,19.531250
2011.000000,-0.012570,0.010000,21.523104,19.531250
2012.000000,-0.014477,0.010040,21.527712,19.531250
2013.000000,-0.010891,0.010041,21.533201,19.531250
2014.000000,-0.013867,0.010026,21.539938,19.531250
2015.000000,-0.014782,0.010081,21.546793,19.531250
2016.000000,-0.011044,0.010154,21.554577,19.531250
2017.000000,-0.007382,0.010194,21.562813,19.531250
2018.000000,-0.005932,0.010193,21.571075,19.531250
2019.000000,-0.004101,0.010177,21.580072,19.531250
2020.000000,-0.009060,0.010154,21.590399,19.531250
2021.000000,-0.017071,0.010149,21.600948,19.531250
2022.000000,-0.015850,0.010242,21.612013,19.531250
2023.000000,-0.010204,0.010291,21.623104,19.531250
2024.000000,-0.008679,0.010265,21.634235,19.531250
2025.000000,-0.007763,0.010214,21.644901,19.531250
2026.000000,-0.007610,0.010163,21.655525,19.531250
2027.000000,-0.006008,0.010123,21.665970,19.531250
2028.000000,-0.002117,0.010113,21.675627,19.531250
2029.000000,-0.003491,0.010080,21.685865,19.531250
2030.000000,-0.006771,0.010024,21.696527,19.531250
2031.000000,-0.009670,0.009998,21.707394,19.531250
2032.000000,-0.013561,0.009956,21.717705,19.531250
2033.000000,-0.009899,0.009909,21.727900,19.531250
2034.000000,-0.008297,0.009845,21.738380,19.531250
2035.000000,-0.008526,0.009777,21.748930,19.531250
2036.000000,-0.002956,0.009745,21.759134,19.531250
2037.000000,0.000172,0.009701,21.768738,19.531250
2038.000000,-0.001202,0.009681,21.777830,19.531250
2039.000000,-0.004330,0.009645,21.786062,19.531250
2040.000000,-0.007839,0.009614,21.793753,19.531250
2041.000000,-0.010510,0.009577,21.801092,19.531250
2042.000000,-0.008679,0.009529,21.809114,19.531250
2043.000000,-0.009747,0.009508,21.817005,19.531250
2044.000000,-0.006619,0.009509,21.825306,19.531250
2045.000000,-0.007916,0.009511,21.832214,19.531250
2046.000000,-0.005474,0.009525,21.838718,19.531250
2047.000000,-0.004177,0.009467,21.843864,19.531250
2048.000000,-0.004406,0.009460,21.848291,19.531250
2049.000000,-0.008679,0.009456,21.852640,19.531250
2050.000000,-0.008602,0.009473,21.855986,19.531250
2051.000000,-0.010433,0.009464,21.858177,19.531250
2052.000000,-0.006924,0.009482,21.860180,19.531250
2053.000000,-0.004177,0.009451,21.861898,19.531250
2054.000000,-0.015393,0.009426,21.863340,19.531250
2055.000000,-0.012799,0.009520,21.863569,19.531250
2056.000000,-0.009365,0.009565,21.863216,19.531250
2057.000000,-0.008602,0.009598,21.862127,19.531250
2058.000000,-0.007687,0.009613,21.860081,19.531250
2059.000000,-0.008755,0.009628,21.857561,19.531250
2060.000000,-0.009136,0.009651,21.853996,19.531250
2061.000000,-0.012112,0.009603,21.849798,19.531250
2062.000000,-0.011654,0.009612,21.844872,19.531250
2063.000000,-0.012570,0.009634,21.839855,19.531250
2064.000000,-0.011425,0.009655,21.834919,19.531250
2065.000000,-0.009518,0.009668,21.830103,19.531250
2066.000000,-0.011044,0.009670,21.824741,19.531250
2067.000000,-0.006619,0.009713,21.818985,19.531250
2068.000000,-0.009899,0.009734,21.813162,19.531250
2069.000000,-0.012799,0.009747,21.806807,19.531250
2070.000000,-0.011959,0.009705,21.800131,19.531250
2071.000000,-0.010967,0.009708,21.793129,19.531250
2072.000000,-0.008602,0.009706,21.785967,19.531250
2073.000000,-0.008373,0.009702,21.778316,19.531250
2074.000000,-0.010052,0.009696,21.769791,19.531250
2075.000000,-0.010815,0.009677,21.760820,19.531250
2076.000000,-0.009136,0.009687,21.751484,19.531250
2077.000000,-0.008373,0.009705,21.741098,19.531250
2078.000000,-0.007076,0.009706,21.729963,19.531250
2079.000000,-0.011044,0.009699,21.717390,19.531250
2080.000000,-0.009289,0.009729,21.702908,19.531250
2081.000000,-0.007839,0.009712,21.687408,19.531250
2082.000000,-0.005550,0.009686,21.669874,19.531250
2083.000000,-0.012264,0.009657,21.651291,19.531250
2084.000000,-0.012264,0.009659,21.632700,19.531250
2085.000000,-0.011959,0.009688,21.614250,19.531250
2086.000000,-0.011501,0.009719,21.594311,19.531250
2087.000000,-0.006313,0.009758,21.576757,19.531250
2088.000000,-0.006237,0.009760,21.560661,19.531250
2089.000000,-0.009136,0.009752,21.546394,19.531250
2090.000000,-0.007916,0.009777,21.534151,19.531250
2091.000000,-0.009899,0.009788,21.525873,19.531250
2092.000000,-0.011578,0.009781,21.521023,19.531250
2093.000000,-0.011730,0.009762,21.519094,19.531250
2094.000000,-0.012570,0.009749,21.518490,19.531250
2095.000000,-0.012875,0.009758,21.519526,19.531250
2096.000000,-0.008679,0.009803,21.522654,19.531250
2097.000000,-0.008145,0.009817,21.529205,19.531250
2098.000000,-0.008602,0.009839,21.537001,19.531250
2099.000000,-0.007305,0.009866,21.541931,19.531250
2100.000000,-0.011311,0.009859,21.543985,19.531250
2101.000000,-0.009403,0.009845,21.545254,19.531250
2102.000000,-0.010090,0.009844,21.545172,19.531250
2103.000000,-0.010929,0.009811,21.541580,19.531250
2104.000000,-0.012226,0.009764,21.533190,19.531250
2105.000000,-0.010472,0.009733,21.519869,19.531250
2106.000000,-0.009785,0.009732,21.502583,19.531250
2107.000000,-0.008030,0.009739,21.481228,19.531250
2108.000000,-0.006657,0.009749,21.456812,19.531250
2109.000000,-0.007343,0.009745,21.431364,19.531250
2110.000000,-0.008869,0.009699,21.404018,19.531250
2111.000000,-0.011311,0.009659,21.377840,19.531250
2112.000000,-0.015888,0.009643,21.353052,19.531250
2113.000000,-0.010243,0.009665,21.331425,19.531250
2114.000000,-0.011158,0.009658,21.315725,19.531250
2115.000000,-0.008793,0.009623,21.306122,19.531250
2116.000000,-0.007572,0.009550,21.300121,19.531250
2117.000000,-0.006123,0.009516,21.297754,19.531250
2118.000000,-0.004368,0.009507,21.302942,19.531250
2119.000000,-0.011692,0.009498,21.313570,19.531250
2120.000000,-0.012379,0.009561,21.329603,19.531250
2121.000000,-0.011158,0.009598,21.348408,19.531250
2122.000000,-0.011692,0.009511,21.369225,19.531250
2123.000000,-0.011616,0.009450,21.391125,19.531250
2124.000000,-0.009861,0.009467,21.412273,19.531250
2125.000000,-0.006504,0.009478,21.432245,19.531250
2126.000000,-0.007801,0.009469,21.450888,19.531250
2127.000000,-0.006809,0.009470,21.467054,19.531250
2128.000000,-0.004826,0.009476,21.481157,19.531250
2129.000000,-0.007115,0.009486,21.493528,19.531250
2130.000000,-0.006428,0.009506,21.503839,19.531250
2131.000000,-0.010243,0.009504,21.512579,19.531250
2132.000000,-0.013676,0.009510,21.519312,19.531250
2133.000000,-0.011845,0.009511,21.524544,19.531250
2134.000000,-0.011692,0.009533,21.528393,19.531250
2135.000000,-0.008259,0.009569,21.531048,19.531250
2136.000000,-0.007267,0.009567,21.533592,19.531250
2137.000000,-0.004749,0.009590,21.536209,19.531250
2138.000000,-0.004139,0.009601,21.538937,19.531250
2139.000000,-0.001469,0.009610,21.542501,19.531250
2140.000000,-0.012531,0.009601,21.547106,19.531250
2141.000000,-0.016651,0.009651,21.552752,19.531250
2142.000000,-0.012684,0.009737,21.559658,19.531250
2143.000000,-0.010624,0.009780,21.566936,19.531250
2144.000000,-0.012913,0.009790,21.575195,19.531250
2145.000000,-0.010319,0.009852,21.583633,19.531250
2146.000000,-0.006580,0.009874,21.592054,19.531250
2147.000000,-0.006886,0.009881,21.600946,19.531250
2148.000000,-0.006428,0.009896,21.611082,19.531250
2149.000000,-0.009022,0.009907,21.621540,19.531250
2150.000000,-0.007572,0.009910,21.632542,19.531250
2151.000000,-0.012837,0.009902,21.643572,19.531250
2152.000000,-0.016346,0.009930,21.654654,19.531250
2153.000000,-0.012074,0.010040,21.665283,19.531250
2154.000000,-0.007038,0.010104,21.675936,19.531250
2155.000000,-0.008335,0.010011,21.686378,19.531250
2156.000000,-0.008640,0.009963,21.695833,19.531250
2157.000000,-0.006352,0.009957,21.705725,19.531250
2158.000000,-0.006199,0.009940,21.715862,19.531250
2159.000000,-0.005512,0.009929,21.726128,19.531250
2160.000000,-0.010166,0.009906,21.735899,19.531250
2161.000000,-0.011463,0.009916,21.745600,19.531250
2162.000000,-0.010624,0.009908,21.755709,19.531250
2163.000000,-0.010090,0.009897,21.765888,19.531250
2164.000000,-0.008869,0.009868,21.775629,19.531250
2165.000000,-0.009480,0.009842,21.784557,19.531250
2166.000000,-0.006275,0.009842,21.793037,19.531250
2167.000000,-0.003147,0.009800,21.800415,19.531250
2168.000000,-0.004139,0.009782,21.807116,19.531250
2169.000000,-0.007115,0.009741,21.813540,19.531250
2170.000000,-0.009861,0.009683,21.820662,19.531250
2171.000000,-0.011311,0.009659,21.827669,19.531250
2172.000000,-0.013828,0.009663,21.835129,19.531250
2173.000000,-0.011158,0.009723,21.841331,19.531250
2174.000000,-0.011540,0.009751,21.847202,19.531250
2175.000000,-0.007343,0.009768,21.851700,19.531250
2176.000000,-0.004368,0.009736,21.855219,19.531250
2177.000000,-0.004597,0.009702,21.858700,19.531250
2178.000000,-0.006580,0.009677,21.861187,19.531250
2179.000000,-0.006657,0.009674,21.862288,19.531250
2180.000000,-0.011845,0.009633,21.863306,19.531250
2181.000000,-0.011311,0.009661,21.864159,19.531250
2182.000000,-0.010090,0.009696,21.864906,19.531250
2183.000000,-0.013142,0.009732,21.864788,19.531250
2184.000000,-0.014591,0.009744,21.863884,19.531250
2185.000000,-0.009709,0.009776,21.861935,19.531250
2186.000000,-0.006046,0.009751,21.859213,19.531250
2187.000000,-0.004902,0.009702,21.855925,19.531250
2188.000000,-0.004063,0.009693,21.851742,19.531250
2189.000000,-0.008488,0.009682,21.846943,19.531250
2190.000000,-0.009937,0.009676,21.841440,19.531250
2191.000000,-0.011997,0.009695,21.835903,19.531250
2192.000000,-0.012531,0.009718,21.830509,19.531250
2193.000000,-0.009022,0.009730,21.825283,19.531250
2194.000000,-0.011082,0.009701,21.819691,19.531250
2195.000000,-0.009022,0.009683,21.813858,19.531250
2196.000000,-0.007420,0.009639,21.807915,19.531250
2197.000000,-0.007191,0.009629,21.801378,19.531250
2198.000000,-0.009174,0.009621,21.794432,19.531250
2199.000000,-0.009327,0.009626,21.787220,19.531250
2200.000000,-0.009785,0.009644,21.779999,19.531250
2201.000000,-0.009098,0.009627,21.772408,19.531250
2202.000000,-0.009480,0.009624,21.763987,19.531250
2203.000000,-0.009861,0.009618,21.755188,19.531250
2204.000000,-0.010243,0.009607,21.746119,19.531250
2205.000000,-0.011158,0.009583,21.735996,19.531250
2206.000000,-0.011692,0.009591,21.725138,19.531250
2207.000000,-0.008717,0.009612,21.712875,19.531250
2208.000000,-0.006428,0.009618,21.698742,19.531250
2209.000000,-0.008793,0.009617,21.683657,19.531250
2210.000000,-0.008793,0.009629,21.666510,19.531250
2211.000000,-0.009022,0.009628,21.648428,19.531250
2212.000000,-0.012989,0.009604,21.630419,19.531250
2213.000000,-0.011006,0.009560,21.612556,19.531250
2214.000000,-0.011006,0.009569,21.593222,19.531250
2215.000000,-0.012684,0.009567,21.576271,19.531250
2216.000000,-0.004749,0.009611,21.560852,19.531250
2217.000000,-0.006046,0.009593,21.547325,19.531250
2218.000000,-0.007801,0.009592,21.535839,19.531250
2219.000000,-0.009785,0.009614,21.528097,19.531250
2220.000000,-0.007038,0.009592,21.523937,19.531250
2221.000000,-0.004292,0.009538,21.522799,19.531250
2222.000000,-0.010090,0.009483,21.522923,19.531250
2223.000000,-0.014973,0.009464,21.524736,19.531250
2224.000000,-0.013142,0.009511,21.528767,19.531250
2225.000000,-0.010929,0.009551,21.536213,19.531250
2226.000000,-0.009861,0.009591,21.544893,19.531250
2227.000000,-0.005436,0.009610,21.550568,19.531250
2228.000000,-0.000248,0.009601,21.553324,19.531250
2229.000000,-0.004215,0.009589,21.554884,19.531250
2230.000000,-0.010319,0.009572,21.554989,19.531250
2231.000000,-0.011387,0.009606,21.551645,19.531250
2232.000000,-0.016957,0.009619,21.543545,19.531250
2233.000000,-0.012608,0.009671,21.530659,19.531250
2234.000000,-0.011387,0.009681,21.513847,19.531250
2235.000000,-0.008183,0.009677,21.492907,19.531250
2236.000000,-0.006580,0.009676,21.468788,19.531250
2237.000000,-0.006046,0.009671,21.443615,19.531250
2238.000000,-0.008869,0.009679,21.416523,19.531250
2239.000000,-0.008793,0.009710,21.390512,19.531250
2240.000000,-0.007877,0.009749,21.365917,19.531250
2241.000000,-0.011006,0.009700,21.344624,19.531250
2242.000000,-0.011845,0.009619,21.329237,19.531250
2243.000000,-0.011845,0.009609,21.320038,19.531250
2244.000000,-0.012226,0.009623,21.314404,19.531250
2245.000000,-0.009556,0.009614,21.312410,19.531250
2246.000000,-0.012531,0.009606,21.318003,19.531250
2247.000000,-0.009327,0.009665,21.328930,19.531250
2248.000000,-0.002766,0.009685,21.345257,19.531250
2249.000000,-0.006275,0.009668,21.364340,19.531250
2250.000000,-0.005741,0.009646,21.385365,19.531250
2251.000000,-0.012074,0.009634,21.407598,19.531250
2252.000000,-0.018330,0.009624,21.429092,19.531250
2253.000000,-0.014668,0.009659,21.449335,19.531250
2254.000000,-0.010700,0.009695,21.468296,19.531250
2255.000000,-0.012226,0.009729,21.484774,19.531250
2256.000000,-0.009327,0.009770,21.499178,19.531250
2257.000000,-0.007801,0.009776,21.511723,19.531250
2258.000000,-0.003529,0.009787,21.522141,19.531250
2259.000000,-0.004673,0.009773,21.530863,19.531250
2260.000000,-0.017185,0.009769,21.537689,19.531250
2261.000000,-0.010548,0.009867,21.543034,19.531250
2262.000000,-0.012531,0.009856,21.546839,19.531250
2263.000000,-0.012303,0.009879,21.549511,19.531250
2264.000000,-0.011234,0.009904,21.552057,19.531250
2265.000000,-0.009556,0.009928,21.554667,19.531250
2266.000000,-0.011158,0.009929,21.557371,19.531250
2267.000000,-0.005512,0.009971,21.560816,19.531250
2268.000000,-0.005055,0.009982,21.565203,19.531250
2269.000000,-0.006428,0.009986,21.570564,19.531250
2270.000000,-0.008717,0.009981,21.577124,19.531250
2271.000000,-0.008259,0.009971,21.584103,19.531250
2272.000000,-0.012608,0.009941,21.592070,19.531250
2273.000000,-0.009403,0.009924,21.600117,19.531250
2274.000000,-0.008259,0.009906,21.608152,19.531250
2275.000000,-0.008946,0.009873,21.616676,19.531250
2276.000000,-0.007496,0.009887,21.626358,19.531250
2277.000000,-0.004826,0.009905,21.636320,19.531250
2278.000000,-0.006580,0.009906,21.646721,19.531250
2279.000000,-0.003986,0.009906,21.657137,19.531250
2280.000000,-0.006504,0.009892,21.667570,19.531250
2281.000000,-0.009174,0.009842,21.677567,19.531250
2282.000000,-0.007115,0.009820,21.687607,19.531250
2283.000000,-0.010166,0.009794,21.697405,19.531250
2284.000000,-0.010014,0.009759,21.706257,19.531250
2285.000000,-0.009327,0.009701,21.715490,19.531250
2286.000000,-0.008488,0.009697,21.724951,19.531250
2287.000000,-0.007725,0.009715,21.734442,19.531250
2288.000000,-0.003834,0.009733,21.743420,19.531250
2289.000000,-0.007801,0.009733,21.752350,19.531250
2290.000000,-0.007725,0.009727,21.761686,19.531250
2291.000000,-0.009861,0.009707,21.771097,19.531250
2292.000000,-0.011540,0.009683,21.780085,19.531250
2293.000000,-0.011692,0.009670,21.788275,19.531250
2294.000000,-0.010090,0.009699,21.796021,19.531250
2295.000000,-0.008946,0.009688,21.802685,19.531250
2296.000000,-0.010548,0.009687,21.808683,19.531250
2297.000000,-0.009785,0.009716,21.814402,19.531250
2298.000000,-0.007572,0.009739,21.820841,19.531250
2299.000000,-0.006199,0.009725,21.827213,19.531250
2300.000000,-0.010014,0.009700,21.834085,19.531250
2301.000000,-0.009632,0.009702,21.839727,19.531250
2302.000000,-0.010929,0.009708,21.845068,19.531250
2303.000000,-0.014897,0.009723,21.849052,19.531250
2304.000000,-0.014439,0.009787,21.852127,19.531250
2305.000000,-0.009709,0.009839,21.855200,19.531250
2306.000000,-0.006962,0.009824,21.857277,19.531250
2307.000000,-0.006428,0.009779,21.858042,19.531250
2308.000000,-0.007267,0.009761,21.858761,19.531250
2309.000000,-0.011006,0.009767,21.859352,19.531250
2310.000000,-0.011769,0.009790,21.859888,19.531250
2311.000000,-0.012150,0.009821,21.859596,19.531250
2312.000000,-0.014820,0.009855,21.858543,19.531250
2313.000000,-0.012226,0.009880,21.856451,19.531250
2314.000000,-0.012913,0.009895,21.853605,19.531250
2315.000000,-0.012913,0.009918,21.850218,19.531250
2316.000000,-0.008259,0.009921,21.846003,19.531250
2317.000000,-0.012074,0.009944,21.841230,19.531250
2318.000000,-0.010700,0.009998,21.835802,19.531250
2319.000000,-0.006275,0.010025,21.830406,19.531250
2320.000000,-0.012074,0.009997,21.825190,19.531250
2321.000000,-0.011006,0.010045,21.820166,19.531250
2322.000000,-0.010395,0.010096,21.814825,19.531250
2323.000000,-0.012760,0.010099,21.809195,19.531250
2324.000000,-0.014515,0.010069,21.803495,19.531250
2325.000000,-0.012379,0.010088,21.797331,19.531250
2326.000000,-0.010090,0.010104,21.790792,19.531250
2327.000000,-0.007954,0.010107,21.784060,19.531250
2328.000000,-0.003605,0.010123,21.777420,19.531250
2329.000000,-0.003452,0.010130,21.770628,19.531250
2330.000000,-0.005055,0.010127,21.763277,19.531250
2331.000000,-0.007343,0.010087,21.755741,19.531250
2332.000000,-0.010395,0.010049,21.748188,19.531250
2333.000000,-0.008183,0.009959,21.740015,19.531250
2334.000000,-0.008869,0.009913,21.731464,19.531250
2335.000000,-0.008869,0.009887,21.721722,19.531250
2336.000000,-0.004215,0.009893,21.710434,19.531250
2337.000000,-0.003223,0.009880,21.698542,19.531250
2338.000000,-0.003071,0.009867,21.684780,19.531250
2339.000000,-0.002384,0.009832,21.670776,19.531250
2340.000000,-0.004597,0.009795,21.657318,19.531250
2341.000000,-0.003529,0.009774,21.644480,19.531250
2342.000000,-0.003986,0.009719,21.631094,19.531250
2343.000000,-0.009632,0.009655,21.619883,19.531250
