emgT,emg,rms,mnf,mdf
0.000000,-0.072461,0.007246,0.000000,0.000000
1.000000,-0.072385,0.010242,0.000000,0.000000
2.000000,-0.075208,0.012707,0.000000,0.000000
3.000000,-0.074674,0.014739,0.000000,0.000000
4.000000,-0.074140,0.016498,0.000000,0.000000
5.000000,-0.071088,0.017965,0.000000,0.000000
6.000000,-0.072995,0.019391,0.000000,0.000000
7.000000,-0.071469,0.020666,0.000000,0.000000
8.000000,-0.073987,0.021951,1.307502,0.000000
9.000000,-0.072461,0.023116,1.319239,0.000000
10.000000,-0.072004,0.024211,1.336578,0.000000
11.000000,-0.068341,0.025157,1.360728,0.000000
12.000000,-0.070096,0.026116,1.392107,0.000000
13.000000,-0.070401,0.027048,1.432448,0.000000
14.000000,-0.069486,0.027926,1.479630,0.000000
15.000000,-0.072309,0.028847,1.535710,0.000000
16.000000,-0.070249,0.029690,1.597838,0.000000
17.000000,-0.069409,0.030491,1.669014,0.000000
18.000000,-0.068189,0.031244,1.748564,0.000000
19.000000,-0.066205,0.031938,1.840176,0.000000
20.000000,-0.065518,0.032603,1.938237,0.000000
21.000000,-0.066968,0.033283,2.043998,0.000000
22.000000,-0.066434,0.033940,2.158965,0.000000
23.000000,-0.067350,0.034602,2.277425,0.000000
24.000000,-0.063382,0.035177,2.406349,0.000000
25.000000,-0.061704,0.035714,2.543972,0.000000
26.000000,-0.063687,0.036278,2.690974,0.000000
27.000000,-0.064679,0.036850,2.848923,0.000000
28.000000,-0.062390,0.037374,3.015426,0.000000
29.000000,-0.063306,0.037907,3.185671,0.000000
30.000000,-0.063077,0.038428,3.363330,0.000000
31.000000,-0.059491,0.038886,3.544713,0.000000
32.000000,-0.060254,0.039350,3.741154,0.000000
33.000000,-0.057050,0.039761,3.947494,0.000000
34.000000,-0.058652,0.040191,4.153960,0.000000
35.000000,-0.061475,0.040659,4.362230,0.000000
36.000000,-0.060559,0.041107,4.580847,0.000000
37.000000,-0.056973,0.041500,4.800531,0.000000
38.000000,-0.059033,0.041918,5.023973,3.906250
39.000000,-0.056668,0.042299,5.260982,3.906250
40.000000,-0.056821,0.042679,5.498184,3.906250
41.000000,-0.055447,0.043038,5.747588,3.906250
42.000000,-0.058270,0.043431,5.993554,3.906250
43.000000,-0.057813,0.043814,6.231181,3.906250
44.000000,-0.055066,0.044158,6.472152,3.906250
45.000000,-0.052319,0.044467,6.725228,3.906250
46.000000,-0.053235,0.044785,6.970893,3.906250
47.000000,-0.055524,0.045128,7.223876,3.906250
48.000000,-0.054608,0.045457,7.475104,3.906250
49.000000,-0.055676,0.045797,7.729531,3.906250
50.000000,-0.054303,0.046117,7.971883,3.906250
51.000000,-0.051938,0.046409,8.213378,3.906250
52.000000,-0.048962,0.046667,8.461874,3.906250
53.000000,-0.048123,0.046914,8.717101,3.906250
54.000000,-0.052090,0.047202,8.965622,3.906250
55.000000,-0.054761,0.047519,9.202196,3.906250
56.000000,-0.050107,0.047782,9.438056,3.906250
57.000000,-0.047742,0.048020,9.665894,3.906250
58.000000,-0.047436,0.048254,9.894190,3.906250
59.000000,-0.046368,0.048476,10.126160,3.906250
60.000000,-0.046674,0.048700,10.363601,3.906250
61.000000,-0.047971,0.048936,10.598735,3.906250
62.000000,-0.047436,0.049166,10.814833,3.906250
63.000000,-0.048505,0.049404,11.016598,3.906250
64.000000,-0.043622,0.049596,11.228803,3.906250
65.000000,-0.039960,0.049757,11.443262,3.906250
66.000000,-0.044842,0.049959,11.652896,3.906250
67.000000,-0.042554,0.050140,11.860076,3.906250
68.000000,-0.045377,0.050345,12.060265,3.906250
69.000000,-0.046445,0.050558,12.250401,3.906250
70.000000,-0.042477,0.050736,12.436320,3.906250
71.000000,-0.039883,0.050893,12.613144,3.906250
72.000000,-0.040188,0.051051,12.798684,3.906250
73.000000,-0.038891,0.051199,12.988626,3.906250
74.000000,-0.039960,0.051355,13.158111,3.906250
75.000000,-0.043469,0.051539,13.328012,3.906250
76.000000,-0.043393,0.051721,13.484109,3.906250
77.000000,-0.040799,0.051882,13.631690,3.906250
78.000000,-0.037976,0.052021,13.784087,3.906250
79.000000,-0.037060,0.052152,13.937179,3.906250
80.000000,-0.037518,0.052287,14.083454,3.906250
81.000000,-0.040265,0.052442,14.226916,3.906250
82.000000,-0.037518,0.052576,14.361947,3.906250
83.000000,-0.039960,0.052728,14.483403,3.906250
84.000000,-0.038739,0.052870,14.599967,3.906250
85.000000,-0.035077,0.052986,14.717081,3.906250
86.000000,-0.036069,0.053109,14.834822,3.906250
87.000000,-0.035916,0.053230,14.948983,3.906250
88.000000,-0.034848,0.053344,15.056908,3.906250
89.000000,-0.035611,0.053463,15.154641,3.906250
90.000000,-0.033856,0.053570,15.252600,3.906250
91.000000,-0.034848,0.053683,15.341562,3.906250
92.000000,-0.035306,0.053799,15.428142,3.906250
93.000000,-0.031872,0.053893,15.516044,3.906250
94.000000,-0.032177,0.053989,15.597723,3.906250
95.000000,-0.034924,0.054102,15.675159,7.812500
96.000000,-0.030499,0.054188,15.749708,7.812500
97.000000,-0.029583,0.054269,15.818940,7.812500
98.000000,-0.029507,0.054349,15.886227,7.812500
99.000000,-0.029965,0.054431,15.948186,7.812500
100.000000,-0.048238,0.054162,16.005735,7.812500
101.000000,-0.050908,0.053917,16.063087,7.812500
102.000000,-0.049306,0.053617,16.116119,7.812500
103.000000,-0.051595,0.053345,16.162838,7.812500
104.000000,-0.049077,0.053054,16.209866,7.812500
105.000000,-0.045186,0.052770,16.253790,7.812500
106.000000,-0.047246,0.052476,16.293972,7.812500
107.000000,-0.045644,0.052187,16.330187,7.812500
108.000000,-0.046712,0.051870,16.352230,7.812500
109.000000,-0.047246,0.051578,16.371523,7.812500
110.000000,-0.047627,0.051295,16.390621,7.812500
111.000000,-0.044652,0.051033,16.407642,7.812500
112.000000,-0.047246,0.050770,16.424858,7.812500
113.000000,-0.042439,0.050458,16.442429,7.812500
114.000000,-0.042668,0.050159,16.458105,7.812500
115.000000,-0.049153,0.049878,16.473145,7.812500
116.000000,-0.044957,0.049585,16.486851,7.812500
117.000000,-0.044347,0.049297,16.499512,7.812500
118.000000,-0.044652,0.049027,16.511272,7.812500
119.000000,-0.040532,0.048747,16.522436,7.812500
120.000000,-0.041371,0.048481,16.532570,7.812500
121.000000,-0.041676,0.048197,16.541845,7.812500
122.000000,-0.042363,0.047924,16.550043,7.812500
123.000000,-0.044423,0.047656,16.558012,7.812500
124.000000,-0.041447,0.047415,16.564886,7.812500
125.000000,-0.037251,0.047159,16.570908,7.812500
126.000000,-0.041371,0.046909,16.576267,7.812500
127.000000,-0.040913,0.046641,16.579748,7.812500
128.000000,-0.039616,0.046391,16.582531,7.812500
129.000000,-0.040379,0.046135,16.584564,7.812500
130.000000,-0.039921,0.045875,16.586090,7.812500
131.000000,-0.036183,0.045632,16.587870,7.812500
132.000000,-0.035573,0.045372,16.587648,7.812500
133.000000,-0.034733,0.045145,16.584415,7.812500
134.000000,-0.035115,0.044900,16.582598,7.812500
135.000000,-0.040379,0.044660,16.579847,7.812500
136.000000,-0.037098,0.044403,16.574415,7.812500
137.000000,-0.035039,0.044175,16.566494,7.812500
138.000000,-0.034962,0.043919,16.555025,7.812500
139.000000,-0.032979,0.043676,16.537537,7.812500
140.000000,-0.031147,0.043417,16.516293,7.812500
141.000000,-0.033894,0.043194,16.491604,7.812500
142.000000,-0.034810,0.042941,16.463713,7.812500
143.000000,-0.034733,0.042691,16.438087,7.812500
144.000000,-0.031071,0.042449,16.405859,7.812500
145.000000,-0.029622,0.042229,16.369022,7.812500
146.000000,-0.031758,0.042012,16.329283,7.812500
147.000000,-0.031453,0.041762,16.285856,7.812500
148.000000,-0.032597,0.041532,16.236847,7.812500
149.000000,-0.031910,0.041281,16.187996,7.812500
150.000000,-0.032292,0.041049,16.137985,7.812500
151.000000,-0.029240,0.040824,16.083929,7.812500
152.000000,-0.029316,0.040635,16.023670,7.812500
153.000000,-0.028019,0.040447,15.959317,7.812500
154.000000,-0.028019,0.040207,15.895921,7.812500
155.000000,-0.033055,0.039970,15.831006,7.812500
156.000000,-0.028553,0.039757,15.765983,7.812500
157.000000,-0.030232,0.039585,15.697018,7.812500
158.000000,-0.030461,0.039418,15.626993,7.812500
159.000000,-0.028859,0.039250,15.549919,7.812500
160.000000,-0.027333,0.039067,15.474078,7.812500
161.000000,-0.027943,0.038872,15.395990,7.812500
162.000000,-0.027867,0.038682,15.314819,7.812500
163.000000,-0.026570,0.038469,15.239344,7.812500
164.000000,-0.027638,0.038321,15.157577,7.812500
165.000000,-0.027333,0.038210,15.076676,7.812500
166.000000,-0.028019,0.038049,14.995522,7.812500
167.000000,-0.026341,0.037902,14.914507,7.812500
168.000000,-0.028630,0.037738,14.829828,7.812500
169.000000,-0.026799,0.037547,14.749184,7.812500
170.000000,-0.027256,0.037405,14.666878,7.812500
171.000000,-0.025731,0.037281,14.579598,7.812500
172.000000,-0.026112,0.037155,14.495484,3.906250
173.000000,-0.022679,0.037021,14.415446,3.906250
174.000000,-0.025196,0.036891,14.335309,3.906250
175.000000,-0.027867,0.036740,14.256138,3.906250
176.000000,-0.024510,0.036565,14.182394,3.906250
177.000000,-0.024586,0.036419,14.108864,3.906250
178.000000,-0.024434,0.036303,14.034837,3.906250
179.000000,-0.024739,0.036198,13.960938,3.906250
180.000000,-0.024052,0.036083,13.893793,3.906250
181.000000,-0.024357,0.035941,13.826966,3.906250
182.000000,-0.019245,0.035796,13.766870,3.906250
183.000000,-0.025349,0.035663,13.712227,3.906250
184.000000,-0.023060,0.035526,13.656563,3.906250
185.000000,-0.020619,0.035413,13.603733,3.906250
186.000000,-0.022984,0.035304,13.556890,3.906250
187.000000,-0.021611,0.035187,13.518557,3.906250
188.000000,-0.020542,0.035074,13.488148,3.906250
189.000000,-0.022450,0.034965,13.464778,3.906250
190.000000,-0.019322,0.034854,13.432094,3.906250
191.000000,-0.018788,0.034731,13.412155,3.906250
192.000000,-0.017796,0.034596,13.400564,3.906250
193.000000,-0.017872,0.034496,13.394043,3.906250
194.000000,-0.020542,0.034407,13.398281,3.906250
195.000000,-0.022145,0.034300,13.407848,3.906250
196.000000,-0.020314,0.034225,13.421331,3.906250
197.000000,-0.019627,0.034153,13.442455,3.906250
198.000000,-0.017414,0.034070,13.465132,3.906250
199.000000,-0.016880,0.033980,13.491467,3.906250
200.000000,-0.027829,0.033751,13.529498,3.906250
201.000000,-0.029202,0.033492,13.579114,3.906250
202.000000,-0.028439,0.033249,13.631706,3.906250
203.000000,-0.030270,0.032986,13.695889,3.906250
204.000000,-0.029583,0.032752,13.758051,3.906250
205.000000,-0.027523,0.032556,13.822506,3.906250
206.000000,-0.030423,0.032354,13.894029,3.906250
207.000000,-0.031109,0.032182,13.972980,3.906250
208.000000,-0.027447,0.031959,14.072747,3.906250
209.000000,-0.027142,0.031724,14.179784,3.906250
210.000000,-0.028134,0.031490,14.286851,3.906250
211.000000,-0.028210,0.031300,14.393959,3.906250
212.000000,-0.026684,0.031056,14.502066,3.906250
213.000000,-0.024777,0.030864,14.612372,3.906250
214.000000,-0.025235,0.030672,14.731814,3.906250
215.000000,-0.030575,0.030429,14.853853,3.906250
216.000000,-0.026150,0.030209,14.970194,3.906250
217.000000,-0.026379,0.029998,15.082156,3.906250
218.000000,-0.025006,0.029769,15.198397,3.906250
219.000000,-0.026608,0.029611,15.310440,3.906250
220.000000,-0.024701,0.029425,15.420749,3.906250
221.000000,-0.025006,0.029235,15.531549,3.906250
222.000000,-0.024701,0.029032,15.639546,3.906250
223.000000,-0.025845,0.028806,15.751149,3.906250
224.000000,-0.024624,0.028613,15.856112,3.906250
225.000000,-0.020886,0.028446,15.957349,3.906250
226.000000,-0.025463,0.028258,16.055695,3.906250
227.000000,-0.023938,0.028063,16.150972,3.906250
228.000000,-0.026226,0.027905,16.240274,3.906250
229.000000,-0.024319,0.027719,16.329086,7.812500
230.000000,-0.024548,0.027539,16.413095,7.812500
231.000000,-0.022641,0.027394,16.491446,7.812500
232.000000,-0.022641,0.027257,16.567888,7.812500
233.000000,-0.021267,0.027118,16.637623,7.812500
234.000000,-0.022335,0.026982,16.705835,7.812500
235.000000,-0.024853,0.026794,16.767815,7.812500
236.000000,-0.025235,0.026655,16.816372,7.812500
237.000000,-0.021954,0.026515,16.859257,7.812500
238.000000,-0.024548,0.026398,16.900076,7.812500
239.000000,-0.020504,0.026271,16.936005,7.812500
240.000000,-0.021420,0.026174,16.970173,7.812500
241.000000,-0.020886,0.026037,17.002174,7.812500
242.000000,-0.020886,0.025888,17.030863,7.812500
243.000000,-0.023404,0.025761,17.057753,7.812500
244.000000,-0.019741,0.025649,17.081287,7.812500
245.000000,-0.017224,0.025535,17.100784,7.812500
246.000000,-0.021725,0.025430,17.117968,7.812500
247.000000,-0.022641,0.025336,17.131670,7.812500
248.000000,-0.022717,0.025228,17.142601,7.812500
249.000000,-0.019741,0.025103,17.150671,7.812500
250.000000,-0.019131,0.024968,17.155764,7.812500
251.000000,-0.016461,0.024851,17.158844,7.812500
252.000000,-0.019207,0.024752,17.158701,7.812500
253.000000,-0.018139,0.024659,17.155899,7.812500
254.000000,-0.020657,0.024587,17.150623,7.812500
255.000000,-0.022107,0.024463,17.141531,7.812500
256.000000,-0.018673,0.024368,17.129784,7.812500
257.000000,-0.019970,0.024262,17.115713,7.812500
258.000000,-0.019589,0.024150,17.099478,7.812500
259.000000,-0.019741,0.024058,17.082241,7.812500
260.000000,-0.017529,0.023966,17.060966,7.812500
261.000000,-0.017529,0.023867,17.035360,7.812500
262.000000,-0.018063,0.023772,17.008888,7.812500
263.000000,-0.022564,0.023731,16.979414,7.812500
264.000000,-0.017529,0.023635,16.967953,7.812500
265.000000,-0.017376,0.023540,16.953794,7.812500
266.000000,-0.019589,0.023455,16.937212,7.812500
267.000000,-0.019665,0.023389,16.914793,7.812500
268.000000,-0.020199,0.023301,16.889357,7.812500
269.000000,-0.017758,0.023215,16.859997,7.812500
270.000000,-0.016461,0.023113,16.828129,7.812500
271.000000,-0.016613,0.023029,16.797152,7.812500
272.000000,-0.017376,0.022946,16.762011,7.812500
273.000000,-0.016613,0.022894,16.722389,7.812500
274.000000,-0.018063,0.022827,16.679655,7.812500
275.000000,-0.020733,0.022751,16.632856,7.812500
276.000000,-0.016003,0.022675,16.581387,7.812500
277.000000,-0.018368,0.022616,16.531103,7.812500
278.000000,-0.016690,0.022545,16.480206,7.812500
279.000000,-0.015469,0.022463,16.426453,7.812500
280.000000,-0.015621,0.022388,16.366570,7.812500
281.000000,-0.016690,0.022318,16.303209,7.812500
282.000000,-0.016003,0.022292,16.240677,7.812500
283.000000,-0.018139,0.022222,16.176220,7.812500
284.000000,-0.016766,0.022165,16.113043,7.812500
285.000000,-0.014248,0.022115,16.046442,7.812500
286.000000,-0.016537,0.022057,15.979610,7.812500
287.000000,-0.016613,0.022014,15.907005,7.812500
288.000000,-0.016995,0.021984,15.835314,7.812500
289.000000,-0.016766,0.021933,15.761500,7.812500
290.000000,-0.016308,0.021908,15.685841,7.812500
291.000000,-0.013638,0.021870,15.616019,7.812500
292.000000,-0.012646,0.021834,15.540561,7.812500
293.000000,-0.012570,0.021797,15.467185,7.812500
294.000000,-0.013638,0.021743,15.393664,7.812500
295.000000,-0.018444,0.021709,15.320168,7.812500
296.000000,-0.016155,0.021674,15.243788,7.812500
297.000000,-0.013867,0.021629,15.171307,7.812500
298.000000,-0.013867,0.021604,15.098168,7.812500
299.000000,-0.010891,0.021565,15.021775,3.906250
300.000000,-0.016651,0.021449,14.948954,3.906250
301.000000,-0.018559,0.021331,14.879927,3.906250
302.000000,-0.021077,0.021245,14.811447,3.906250
303.000000,-0.020161,0.021125,14.743059,3.906250
304.000000,-0.016728,0.020983,14.680816,3.906250
305.000000,-0.015431,0.020859,14.619323,3.906250
306.000000,-0.016270,0.020700,14.558183,3.906250
307.000000,-0.018330,0.020547,14.497875,3.906250
308.000000,-0.019322,0.020454,14.442958,3.906250
309.000000,-0.019703,0.020369,14.387737,3.906250
310.000000,-0.018788,0.020261,14.339006,3.906250
311.000000,-0.016957,0.020135,14.296327,3.906250
312.000000,-0.015812,0.020020,14.253134,3.906250
313.000000,-0.013371,0.019911,14.213151,3.906250
314.000000,-0.018254,0.019835,14.178635,3.906250
315.000000,-0.020848,0.019708,14.151673,3.906250
316.000000,-0.018788,0.019624,14.131712,3.906250
317.000000,-0.019093,0.019539,14.118311,3.906250
318.000000,-0.017796,0.019460,14.096190,3.906250
319.000000,-0.015888,0.019343,14.087300,3.906250
320.000000,-0.016499,0.019255,14.085729,3.906250
321.000000,-0.015660,0.019156,14.088812,3.906250
322.000000,-0.018940,0.019091,14.101264,3.906250
323.000000,-0.021229,0.019034,14.117841,3.906250
324.000000,-0.017567,0.018955,14.138218,3.906250
325.000000,-0.016194,0.018909,14.165878,3.906250
326.000000,-0.017109,0.018815,14.194601,3.906250
327.000000,-0.018101,0.018750,14.226924,3.906250
328.000000,-0.017033,0.018643,14.269318,3.906250
329.000000,-0.017796,0.018570,14.322186,3.906250
330.000000,-0.017185,0.018487,14.377652,3.906250
331.000000,-0.015660,0.018414,14.443206,3.906250
332.000000,-0.014744,0.018334,14.507319,3.906250
333.000000,-0.014897,0.018271,14.573553,3.906250
334.000000,-0.017414,0.018217,14.645227,3.906250
335.000000,-0.017643,0.018133,14.722982,3.906250
336.000000,-0.016728,0.018034,14.821553,3.906250
337.000000,-0.017033,0.017981,14.926394,3.906250
338.000000,-0.013447,0.017863,15.030979,3.906250
339.000000,-0.015202,0.017810,15.136137,3.906250
340.000000,-0.012226,0.017723,15.241920,3.906250
341.000000,-0.013905,0.017655,15.348760,3.906250
342.000000,-0.013600,0.017583,15.463140,3.906250
343.000000,-0.018406,0.017524,15.579374,3.906250
344.000000,-0.014668,0.017474,15.689641,3.906250
345.000000,-0.014439,0.017449,15.795596,3.906250
346.000000,-0.012913,0.017361,15.905737,3.906250
347.000000,-0.015049,0.017278,16.011408,3.906250
348.000000,-0.013905,0.017185,16.115435,3.906250
349.000000,-0.014591,0.017133,16.218384,3.906250
350.000000,-0.013905,0.017083,16.318552,3.906250
351.000000,-0.014820,0.017068,16.420944,3.906250
352.000000,-0.013905,0.017016,16.517075,3.906250
353.000000,-0.010395,0.016951,16.609529,3.906250
354.000000,-0.015278,0.016894,16.698895,3.906250
355.000000,-0.020314,0.016872,16.784786,3.906250
356.000000,-0.015583,0.016840,16.864986,3.906250
357.000000,-0.014439,0.016784,16.943645,3.906250
358.000000,-0.014134,0.016729,17.017712,7.812500
359.000000,-0.011845,0.016654,17.086563,7.812500
360.000000,-0.012226,0.016607,17.152672,7.812500
361.000000,-0.014744,0.016579,17.212774,7.812500
362.000000,-0.014363,0.016543,17.270176,7.812500
363.000000,-0.017948,0.016487,17.320202,7.812500
364.000000,-0.016880,0.016480,17.362873,7.812500
365.000000,-0.012150,0.016433,17.400873,7.812500
366.000000,-0.013600,0.016372,17.436541,7.812500
367.000000,-0.015049,0.016323,17.468430,7.812500
368.000000,-0.014439,0.016262,17.497931,7.812500
369.000000,-0.016804,0.016252,17.523981,7.812500
370.000000,-0.012760,0.016219,17.547405,7.812500
371.000000,-0.012455,0.016181,17.568153,7.812500
372.000000,-0.011463,0.016129,17.586197,7.812500
373.000000,-0.012455,0.016091,17.601423,7.812500
374.000000,-0.013294,0.016045,17.614307,7.812500
375.000000,-0.017872,0.016010,17.623100,7.812500
376.000000,-0.015278,0.016003,17.629923,7.812500
377.000000,-0.013981,0.015959,17.632898,7.812500
378.000000,-0.013600,0.015929,17.633890,7.812500
379.000000,-0.012760,0.015905,17.634203,7.812500
380.000000,-0.012150,0.015875,17.630985,7.812500
381.000000,-0.011387,0.015828,17.625107,7.812500
382.000000,-0.010014,0.015779,17.616932,7.812500
383.000000,-0.013676,0.015734,17.604010,7.812500
384.000000,-0.013752,0.015704,17.589211,7.812500
385.000000,-0.012531,0.015690,17.572607,7.812500
386.000000,-0.013523,0.015661,17.554270,7.812500
387.000000,-0.012226,0.015620,17.535589,7.812500
388.000000,-0.013600,0.015587,17.512838,7.812500
389.000000,-0.012074,0.015544,17.485622,7.812500
390.000000,-0.011616,0.015501,17.458473,7.812500
391.000000,-0.009022,0.015468,17.428144,7.812500
392.000000,-0.009556,0.015445,17.416245,7.812500
393.000000,-0.009785,0.015425,17.402155,7.812500
394.000000,-0.011158,0.015405,17.385799,7.812500
395.000000,-0.016194,0.015380,17.363632,7.812500
396.000000,-0.012760,0.015348,17.338570,7.812500
397.000000,-0.011616,0.015329,17.309944,7.812500
398.000000,-0.010014,0.015299,17.279202,7.812500
399.000000,-0.008946,0.015287,17.250404,7.812500
400.000000,-0.012112,0.015244,17.217360,7.812500
401.000000,-0.012112,0.015179,17.179903,7.812500
402.000000,-0.014019,0.015097,17.139509,7.812500
403.000000,-0.016308,0.015051,17.094774,7.812500
404.000000,-0.013790,0.015021,17.045759,7.812500
405.000000,-0.015011,0.015016,16.998596,7.812500
406.000000,-0.013790,0.014992,16.951334,7.812500
407.000000,-0.013943,0.014944,16.901562,7.812500
408.000000,-0.013104,0.014877,16.845367,7.812500
409.000000,-0.014172,0.014814,16.785845,7.812500
410.000000,-0.014935,0.014770,16.727505,7.812500
411.000000,-0.013409,0.014733,16.667328,7.812500
412.000000,-0.012417,0.014701,16.609039,7.812500
413.000000,-0.011044,0.014681,16.547417,7.812500
414.000000,-0.014401,0.014638,16.485981,7.812500
415.000000,-0.017910,0.014599,16.418688,7.812500
416.000000,-0.015393,0.014560,16.352674,7.812500
417.000000,-0.012951,0.014492,16.284575,7.812500
418.000000,-0.012722,0.014438,16.214779,7.812500
419.000000,-0.013180,0.014411,16.151749,7.812500
420.000000,-0.013867,0.014383,16.082893,7.812500
421.000000,-0.013256,0.014359,16.016644,7.812500
422.000000,-0.013333,0.014296,15.950220,7.812500
423.000000,-0.013638,0.014203,15.883611,7.812500
424.000000,-0.013943,0.014163,15.814275,7.812500
425.000000,-0.011654,0.014118,15.749366,7.812500
426.000000,-0.012875,0.014073,15.683934,7.812500
427.000000,-0.013943,0.014026,15.615111,3.906250
428.000000,-0.014019,0.013992,15.550102,3.906250
429.000000,-0.014630,0.013956,15.489107,3.906250
430.000000,-0.013790,0.013918,15.428781,3.906250
431.000000,-0.014248,0.013903,15.368380,3.906250
432.000000,-0.010510,0.013864,15.314512,3.906250
433.000000,-0.008984,0.013813,15.261415,3.906250
434.000000,-0.011044,0.013747,15.208534,3.906250
435.000000,-0.015774,0.013725,15.156159,3.906250
436.000000,-0.014706,0.013701,15.109251,3.906250
437.000000,-0.012493,0.013652,15.061429,3.906250
438.000000,-0.013790,0.013656,15.020441,3.906250
439.000000,-0.010891,0.013615,14.985703,3.906250
440.000000,-0.013027,0.013622,14.950136,3.906250
441.000000,-0.011349,0.013598,14.917707,3.906250
442.000000,-0.010128,0.013568,14.890364,3.906250
443.000000,-0.012722,0.013503,14.870028,3.906250
444.000000,-0.011578,0.013473,14.856555,3.906250
445.000000,-0.007763,0.013417,14.849671,3.906250
446.000000,-0.012188,0.013411,14.832379,3.906250
447.000000,-0.015469,0.013415,14.829300,3.906250
448.000000,-0.011883,0.013396,14.832771,3.906250
449.000000,-0.008984,0.013347,14.840355,3.906250
450.000000,-0.010891,0.013319,14.857458,3.906250
451.000000,-0.010739,0.013279,14.877709,3.906250
452.000000,-0.012493,0.013265,14.901194,3.906250
453.000000,-0.010433,0.013266,14.932213,3.906250
454.000000,-0.010739,0.013221,14.962677,3.906250
455.000000,-0.012188,0.013121,14.995646,3.906250
456.000000,-0.012341,0.013086,15.038689,3.906250
457.000000,-0.009823,0.013043,15.092309,3.906250
458.000000,-0.011578,0.013018,15.147952,3.906250
459.000000,-0.010128,0.013004,15.213639,3.906250
460.000000,-0.011273,0.012995,15.276573,3.906250
461.000000,-0.010967,0.012958,15.341167,3.906250
462.000000,-0.011349,0.012928,15.410418,3.906250
463.000000,-0.013485,0.012873,15.485073,3.906250
464.000000,-0.013485,0.012833,15.582391,3.906250
465.000000,-0.008831,0.012806,15.686172,3.906250
466.000000,-0.011654,0.012787,15.788718,3.906250
467.000000,-0.010967,0.012745,15.891706,3.906250
468.000000,-0.013104,0.012731,15.994564,3.906250
469.000000,-0.012264,0.012679,16.097822,3.906250
470.000000,-0.008602,0.012644,16.208815,3.906250
471.000000,-0.009823,0.012621,16.321150,3.906250
472.000000,-0.010281,0.012610,16.426477,3.906250
473.000000,-0.012646,0.012612,16.527477,3.906250
474.000000,-0.012341,0.012603,16.632370,3.906250
475.000000,-0.014477,0.012559,16.732449,3.906250
476.000000,-0.011807,0.012521,16.830265,3.906250
477.000000,-0.010281,0.012486,16.926737,3.906250
478.000000,-0.008526,0.012441,17.020624,3.906250
479.000000,-0.011044,0.012424,17.117115,3.906250
480.000000,-0.011501,0.012418,17.206615,3.906250
481.000000,-0.010586,0.012411,17.292124,3.906250
482.000000,-0.014019,0.012450,17.374388,3.906250
483.000000,-0.014096,0.012454,17.453079,3.906250
484.000000,-0.012951,0.012446,17.526043,3.906250
485.000000,-0.008145,0.012409,17.597691,7.812500
486.000000,-0.010357,0.012379,17.664833,7.812500
487.000000,-0.011349,0.012370,17.726629,7.812500
488.000000,-0.011501,0.012349,17.785671,7.812500
489.000000,-0.012188,0.012350,17.838526,7.812500
490.000000,-0.013943,0.012374,17.888891,7.812500
491.000000,-0.011120,0.012391,17.931780,7.812500
492.000000,-0.010204,0.012396,17.967520,7.812500
493.000000,-0.010357,0.012401,17.998880,7.812500
494.000000,-0.011654,0.012406,18.027973,7.812500
495.000000,-0.013104,0.012369,18.053278,7.812500
496.000000,-0.010967,0.012352,18.076403,7.812500
497.000000,-0.008831,0.012329,18.096157,7.812500
498.000000,-0.008755,0.012319,18.113457,7.812500
499.000000,-0.009213,0.012321,18.128592,7.812500
500.000000,-0.011349,0.012314,18.141291,7.812500
501.000000,-0.012951,0.012322,18.151207,7.812500
502.000000,-0.010357,0.012286,18.159067,7.812500
503.000000,-0.014096,0.012259,18.162760,7.812500
504.000000,-0.010662,0.012228,18.164864,7.812500
505.000000,-0.009518,0.012172,18.163383,7.812500
506.000000,-0.009518,0.012131,18.160152,7.812500
507.000000,-0.011883,0.012109,18.156591,7.812500
508.000000,-0.009594,0.012076,18.149450,7.812500
509.000000,-0.012646,0.012059,18.139688,7.812500
510.000000,-0.011807,0.012025,18.128151,7.812500
511.000000,-0.009899,0.011991,18.111902,7.812500
512.000000,-0.009747,0.011966,18.094151,7.812500
513.000000,-0.006924,0.011935,18.074745,7.812500
514.000000,-0.010204,0.011892,18.053808,7.812500
515.000000,-0.016155,0.011867,18.032591,7.812500
516.000000,-0.013867,0.011848,18.007662,7.812500
517.000000,-0.009289,0.011813,17.978254,7.812500
518.000000,-0.010662,0.011793,17.949310,7.812500
519.000000,-0.011349,0.011774,17.917501,7.812500
520.000000,-0.009899,0.011734,17.904711,7.812500
521.000000,-0.010586,0.011707,17.890083,7.812500
522.000000,-0.009289,0.011667,17.873247,7.812500
523.000000,-0.012951,0.011660,17.850487,7.812500
524.000000,-0.011730,0.011635,17.825001,7.812500
525.000000,-0.010357,0.011623,17.796289,7.812500
526.000000,-0.009976,0.011594,17.765619,7.812500
527.000000,-0.012036,0.011573,17.737352,7.812500
528.000000,-0.011959,0.011550,17.704830,7.812500
529.000000,-0.011349,0.011513,17.667992,7.812500
530.000000,-0.011807,0.011491,17.628517,7.812500
531.000000,-0.011425,0.011459,17.584684,7.812500
532.000000,-0.007992,0.011439,17.536760,7.812500
533.000000,-0.006847,0.011424,17.490944,7.812500
534.000000,-0.008145,0.011400,17.445227,7.812500
535.000000,-0.014401,0.011382,17.397093,7.812500
536.000000,-0.011120,0.011341,17.342613,7.812500
537.000000,-0.009060,0.011308,17.284929,7.812500
538.000000,-0.011578,0.011283,17.228731,7.812500
539.000000,-0.009823,0.011273,17.170992,7.812500
540.000000,-0.009442,0.011238,17.115364,7.812500
541.000000,-0.009976,0.011225,17.056662,7.812500
542.000000,-0.009823,0.011222,16.998241,7.812500
543.000000,-0.008679,0.011183,16.933695,7.812500
544.000000,-0.008602,0.011156,16.870798,7.812500
545.000000,-0.009594,0.011171,16.806070,7.812500
546.000000,-0.009213,0.011142,16.739645,7.812500
547.000000,-0.012493,0.011105,16.680557,7.812500
548.000000,-0.011120,0.011097,16.615576,7.812500
549.000000,-0.011730,0.011122,16.553328,7.812500
550.000000,-0.012188,0.011136,16.491156,7.812500
551.000000,-0.009289,0.011123,16.428984,7.812500
552.000000,-0.009594,0.011094,16.364138,7.812500
553.000000,-0.008526,0.011078,16.303936,7.812500
554.000000,-0.009823,0.011069,16.243298,7.812500
555.000000,-0.014935,0.011103,16.178978,7.812500
556.000000,-0.011578,0.011095,16.118685,3.906250
557.000000,-0.012875,0.011126,16.062555,3.906250
558.000000,-0.013867,0.011152,16.007174,3.906250
559.000000,-0.010357,0.011154,15.952110,3.906250
560.000000,-0.010586,0.011147,15.903697,3.906250
561.000000,-0.011730,0.011155,15.855987,3.906250
562.000000,-0.008679,0.011131,15.808383,3.906250
563.000000,-0.013104,0.011126,15.760766,3.906250
564.000000,-0.010510,0.011094,15.719218,3.906250
565.000000,-0.009213,0.011097,15.676607,3.906250
566.000000,-0.011654,0.011097,15.641037,3.906250
567.000000,-0.011883,0.011107,15.611938,3.906250
568.000000,-0.012646,0.011102,15.581533,3.906250
569.000000,-0.010510,0.011084,15.554004,3.906250
570.000000,-0.010662,0.011101,15.531711,3.906250
571.000000,-0.008526,0.011091,15.516277,3.906250
572.000000,-0.008145,0.011073,15.507865,3.906250
573.000000,-0.004864,0.011011,15.506052,3.906250
574.000000,-0.008526,0.010975,15.492760,3.906250
575.000000,-0.012188,0.010947,15.493784,3.906250
576.000000,-0.010891,0.010938,15.501089,3.906250
577.000000,-0.010586,0.010941,15.512191,3.906250
578.000000,-0.009976,0.010953,15.533021,3.906250
579.000000,-0.008831,0.010933,15.556881,3.906250
580.000000,-0.007839,0.010900,15.583482,3.906250
581.000000,-0.009136,0.010887,15.617577,3.906250
582.000000,-0.009899,0.010842,15.650277,3.906250
583.000000,-0.010967,0.010806,15.684779,3.906250
584.000000,-0.009594,0.010771,15.729351,3.906250
585.000000,-0.006924,0.010762,15.784410,3.906250
586.000000,-0.011425,0.010773,15.841189,3.906250
587.000000,-0.012264,0.010783,15.908066,3.906250
588.000000,-0.012188,0.010790,15.971384,3.906250
589.000000,-0.010357,0.010771,16.035797,3.906250
590.000000,-0.010891,0.010736,16.104582,3.906250
591.000000,-0.010510,0.010730,16.178524,3.906250
592.000000,-0.010967,0.010737,16.275684,3.906250
593.000000,-0.007687,0.010715,16.379246,3.906250
594.000000,-0.011730,0.010716,16.480906,3.906250
595.000000,-0.013561,0.010721,16.582531,3.906250
596.000000,-0.013027,0.010744,16.683609,3.906250
597.000000,-0.011196,0.010766,16.784830,3.906250
598.000000,-0.011349,0.010791,16.893871,3.906250
599.000000,-0.010739,0.010805,17.004042,3.906250
600.000000,-0.008221,0.010776,17.106607,3.906250
601.000000,-0.008450,0.010732,17.204550,3.906250
602.000000,-0.011501,0.010743,17.306124,3.906250
603.000000,-0.014858,0.010754,17.402517,3.906250
604.000000,-0.012112,0.010769,17.496344,3.906250
605.000000,-0.009289,0.010767,17.588808,3.906250
606.000000,-0.011273,0.010784,17.678499,3.906250
607.000000,-0.013409,0.010802,17.771061,3.906250
608.000000,-0.009823,0.010804,17.856312,3.906250
609.000000,-0.010510,0.010781,17.937412,3.906250
610.000000,-0.009899,0.010762,18.015024,3.906250
611.000000,-0.009518,0.010758,18.088938,3.906250
612.000000,-0.009823,0.010759,18.157055,3.906250
613.000000,-0.008679,0.010772,18.224064,7.812500
614.000000,-0.008755,0.010759,18.286417,7.812500
615.000000,-0.013867,0.010727,18.343313,7.812500
616.000000,-0.013104,0.010717,18.397635,7.812500
617.000000,-0.011196,0.010735,18.445541,7.812500
618.000000,-0.010128,0.010730,18.491297,7.812500
619.000000,-0.009670,0.010714,18.529741,7.812500
620.000000,-0.006847,0.010690,18.560751,7.812500
621.000000,-0.008526,0.010672,18.587442,7.812500
622.000000,-0.009442,0.010673,18.612001,7.812500
623.000000,-0.012799,0.010671,18.632587,7.812500
624.000000,-0.011196,0.010665,18.651194,7.812500
625.000000,-0.008221,0.010647,18.666746,7.812500
626.000000,-0.008755,0.010636,18.680033,7.812500
627.000000,-0.009365,0.010609,18.691496,7.812500
628.000000,-0.009213,0.010582,18.700743,7.812500
629.000000,-0.013485,0.010607,18.707121,7.812500
630.000000,-0.011654,0.010605,18.711645,7.812500
631.000000,-0.007916,0.010573,18.712057,7.812500
632.000000,-0.008450,0.010576,18.711115,7.812500
633.000000,-0.006466,0.010574,18.706919,7.812500
634.000000,-0.007992,0.010573,18.701006,7.812500
635.000000,-0.013256,0.010558,18.694965,7.812500
636.000000,-0.010052,0.010547,18.685461,7.812500
637.000000,-0.009060,0.010547,18.673389,7.812500
638.000000,-0.010204,0.010533,18.659824,7.812500
639.000000,-0.008145,0.010519,18.641953,7.812500
640.000000,-0.008602,0.010511,18.622656,7.812500
641.000000,-0.008907,0.010502,18.601912,7.812500
642.000000,-0.009747,0.010501,18.579771,7.812500
643.000000,-0.012112,0.010535,18.557407,7.812500
644.000000,-0.008450,0.010534,18.531538,7.812500
645.000000,-0.008297,0.010523,18.501299,7.812500
646.000000,-0.006924,0.010505,18.471701,7.812500
647.000000,-0.009136,0.010471,18.439568,7.812500
648.000000,-0.010510,0.010464,18.427210,7.812500
649.000000,-0.012417,0.010472,18.413155,7.812500
650.000000,-0.010586,0.010455,18.397064,7.812500
651.000000,-0.008984,0.010452,18.375004,7.812500
652.000000,-0.009289,0.010449,18.350519,7.812500
653.000000,-0.006847,0.010437,18.322905,7.812500
654.000000,-0.009289,0.010432,18.293537,7.812500
655.000000,-0.013104,0.010408,18.266750,7.812500
656.000000,-0.012036,0.010413,18.235781,7.812500
657.000000,-0.010967,0.010391,18.200535,7.812500
658.000000,-0.010662,0.010353,18.162905,7.812500
659.000000,-0.010967,0.010359,18.121229,7.812500
660.000000,-0.008984,0.010344,18.075438,7.812500
661.000000,-0.009136,0.010318,18.032087,7.812500
662.000000,-0.008679,0.010318,17.988945,7.812500
663.000000,-0.011044,0.010294,17.943373,7.812500
664.000000,-0.012264,0.010313,17.891600,7.812500
665.000000,-0.011044,0.010331,17.836771,7.812500
666.000000,-0.012264,0.010338,17.783770,7.812500
667.000000,-0.009976,0.010318,17.729454,7.812500
668.000000,-0.010433,0.010293,17.677505,7.812500
669.000000,-0.010204,0.010290,17.622614,7.812500
670.000000,-0.009823,0.010282,17.568184,7.812500
671.000000,-0.008297,0.010280,17.507534,7.812500
672.000000,-0.009823,0.010295,17.448709,7.812500
673.000000,-0.008526,0.010318,17.388231,7.812500
674.000000,-0.009670,0.010328,17.326147,7.812500
675.000000,-0.010891,0.010314,17.271852,7.812500
676.000000,-0.012264,0.010329,17.211550,7.812500
677.000000,-0.011196,0.010336,17.154186,7.812500
678.000000,-0.009899,0.010335,17.097137,7.812500
679.000000,-0.009213,0.010338,17.040325,7.812500
680.000000,-0.008679,0.010345,16.980713,7.812500
681.000000,-0.009136,0.010345,16.925972,7.812500
682.000000,-0.008831,0.010335,16.870810,7.812500
683.000000,-0.011120,0.010337,16.811846,7.812500
684.000000,-0.010891,0.010350,16.757078,3.906250
685.000000,-0.006847,0.010349,16.706654,3.906250
686.000000,-0.009976,0.010334,16.657021,3.906250
687.000000,-0.011883,0.010330,16.607687,3.906250
688.000000,-0.011807,0.010326,16.565233,3.906250
689.000000,-0.011273,0.010335,16.523361,3.906250
690.000000,-0.010662,0.010333,16.481503,3.906250
691.000000,-0.009289,0.010321,16.439449,3.906250
692.000000,-0.007458,0.010290,16.403547,3.906250
693.000000,-0.007839,0.010291,16.366369,3.906250
694.000000,-0.009442,0.010267,16.336241,3.906250
695.000000,-0.014706,0.010283,16.312586,3.906250
696.000000,-0.011501,0.010265,16.287197,3.906250
697.000000,-0.010586,0.010258,16.264444,3.906250
698.000000,-0.009213,0.010237,16.246822,3.906250
699.000000,-0.008297,0.010214,16.236059,3.906250
700.000000,-0.007916,0.010212,16.232201,3.906250
701.000000,-0.010433,0.010230,16.234743,3.906250
702.000000,-0.011120,0.010226,16.224724,3.906250
703.000000,-0.012036,0.010189,16.229113,3.906250
704.000000,-0.011883,0.010186,16.239574,3.906250
705.000000,-0.007992,0.010175,16.253426,3.906250
706.000000,-0.007763,0.010142,16.276878,3.906250
707.000000,-0.010052,0.010103,16.302925,3.906250
708.000000,-0.010204,0.010107,16.331202,3.906250
709.000000,-0.009899,0.010101,16.366627,3.906250
710.000000,-0.010586,0.010108,16.399973,3.906250
711.000000,-0.006771,0.010086,16.434580,3.906250
712.000000,-0.009594,0.010083,16.479063,3.906250
713.000000,-0.007382,0.010073,16.533913,3.906250
714.000000,-0.009976,0.010084,16.589939,3.906250
715.000000,-0.012722,0.010069,16.655891,3.906250
716.000000,-0.008221,0.010017,16.717512,3.906250
717.000000,-0.008526,0.009991,16.779663,3.906250
718.000000,-0.009670,0.009987,16.845819,3.906250
719.000000,-0.007687,0.009969,16.916901,3.906250
720.000000,-0.008221,0.009980,17.011707,3.906250
721.000000,-0.008450,0.009979,17.112690,3.906250
722.000000,-0.009289,0.009978,17.211191,3.906250
723.000000,-0.012722,0.009977,17.309149,3.906250
724.000000,-0.008907,0.009954,17.406183,3.906250
725.000000,-0.008602,0.009957,17.502989,3.906250
726.000000,-0.008297,0.009953,17.607603,3.906250
727.000000,-0.009213,0.009951,17.713120,3.906250
728.000000,-0.009289,0.009952,17.810427,3.906250
729.000000,-0.012417,0.009938,17.902647,3.906250
730.000000,-0.013027,0.009955,17.998472,3.906250
731.000000,-0.008984,0.009964,18.088715,3.906250
732.000000,-0.007916,0.009960,18.176212,3.906250
733.000000,-0.006619,0.009961,18.262209,3.906250
734.000000,-0.008831,0.009968,18.345247,3.906250
735.000000,-0.013638,0.009973,18.431231,3.906250
736.000000,-0.011349,0.009987,18.509640,3.906250
737.000000,-0.010281,0.009999,18.583767,3.906250
738.000000,-0.010204,0.009999,18.654333,3.906250
739.000000,-0.008526,0.010002,18.721195,3.906250
740.000000,-0.007076,0.009990,18.782146,3.906250
741.000000,-0.010357,0.010004,18.842077,7.812500
742.000000,-0.009442,0.010001,18.897316,7.812500
743.000000,-0.013561,0.010020,18.947054,7.812500
744.000000,-0.011501,0.010050,18.994331,7.812500
745.000000,-0.004406,0.010025,19.035181,7.812500
746.000000,-0.007763,0.010032,19.074036,7.812500
747.000000,-0.009823,0.010038,19.105572,7.812500
748.000000,-0.010739,0.010040,19.129631,7.812500
749.000000,-0.010967,0.010024,19.149445,7.812500
750.000000,-0.009823,0.010016,19.167318,7.812500
751.000000,-0.009060,0.010016,19.181326,7.812500
752.000000,-0.008984,0.010014,19.193565,7.812500
753.000000,-0.008831,0.010029,19.202971,7.812500
754.000000,-0.008907,0.010026,19.210278,7.812500
755.000000,-0.011730,0.010009,19.215952,7.812500
756.000000,-0.010967,0.009996,19.219606,7.812500
757.000000,-0.012646,0.010016,19.220572,7.812500
758.000000,-0.012646,0.010039,19.219898,7.812500
759.000000,-0.008297,0.010014,19.215275,7.812500
760.000000,-0.006237,0.009993,19.209511,7.812500
761.000000,-0.008679,0.009989,19.200670,7.812500
762.000000,-0.007992,0.009983,19.190323,7.812500
763.000000,-0.011196,0.009985,19.180086,7.812500
764.000000,-0.013333,0.009998,19.166569,7.812500
765.000000,-0.010739,0.009995,19.150675,7.812500
766.000000,-0.010662,0.009977,19.133484,7.812500
767.000000,-0.010891,0.009986,19.112188,7.812500
768.000000,-0.009136,0.009973,19.089672,7.812500
769.000000,-0.010510,0.009977,19.065905,7.812500
770.000000,-0.008068,0.009961,19.040958,7.812500
771.000000,-0.006924,0.009950,19.016027,7.812500
772.000000,-0.007382,0.009929,18.987724,7.812500
773.000000,-0.007382,0.009920,18.955227,7.812500
774.000000,-0.007229,0.009899,18.923626,7.812500
775.000000,-0.011807,0.009910,18.889656,7.812500
776.000000,-0.011654,0.009902,18.876181,7.812500
777.000000,-0.010204,0.009892,18.861168,7.812500
778.000000,-0.009899,0.009892,18.844370,7.812500
779.000000,-0.006619,0.009871,18.821754,7.812500
780.000000,-0.004864,0.009845,18.796862,7.812500
781.000000,-0.007839,0.009834,18.768982,7.812500
782.000000,-0.010204,0.009847,18.739555,7.812500
783.000000,-0.011654,0.009853,18.713007,7.812500
784.000000,-0.009442,0.009838,18.682411,7.812500
785.000000,-0.005703,0.009831,18.647688,7.812500
786.000000,-0.006695,0.009803,18.610758,7.812500
787.000000,-0.009976,0.009782,18.569965,7.812500
788.000000,-0.012264,0.009787,18.525188,7.812500
789.000000,-0.011501,0.009790,18.483145,7.812500
790.000000,-0.011807,0.009803,18.441559,7.812500
791.000000,-0.008755,0.009798,18.397726,7.812500
792.000000,-0.010128,0.009822,18.347780,7.812500
793.000000,-0.006390,0.009811,18.294937,7.812500
794.000000,-0.006390,0.009787,18.244205,7.812500
795.000000,-0.013790,0.009773,18.192371,7.812500
796.000000,-0.014096,0.009807,18.143215,7.812500
797.000000,-0.009442,0.009796,18.091261,7.812500
798.000000,-0.010586,0.009810,18.040007,7.812500
799.000000,-0.009899,0.009824,17.982626,7.812500
800.000000,-0.009327,0.009837,17.927328,7.812500
801.000000,-0.008640,0.009819,17.870556,7.812500
802.000000,-0.008488,0.009793,17.812353,7.812500
803.000000,-0.013447,0.009811,17.762377,7.812500
804.000000,-0.010014,0.009791,17.706406,7.812500
805.000000,-0.008946,0.009799,17.653687,7.812500
806.000000,-0.006580,0.009790,17.601480,7.812500
807.000000,-0.010319,0.009793,17.549694,7.812500
808.000000,-0.010700,0.009798,17.495203,7.812500
809.000000,-0.011616,0.009817,17.445913,7.812500
810.000000,-0.009785,0.009809,17.396343,7.812500
811.000000,-0.006962,0.009810,17.342981,7.812500
812.000000,-0.010624,0.009821,17.294098,3.906250
813.000000,-0.006657,0.009815,17.249828,3.906250
814.000000,-0.007420,0.009793,17.206499,3.906250
815.000000,-0.011921,0.009783,17.163504,3.906250
816.000000,-0.009251,0.009792,17.127691,3.906250
817.000000,-0.010166,0.009808,17.092497,3.906250
818.000000,-0.008564,0.009797,17.057373,3.906250
819.000000,-0.008946,0.009808,17.022121,3.906250
820.000000,-0.008412,0.009810,16.993145,3.906250
821.000000,-0.009098,0.009815,16.962822,3.906250
822.000000,-0.008030,0.009804,16.939722,3.906250
823.000000,-0.012150,0.009797,16.923212,3.906250
824.000000,-0.010243,0.009810,16.904770,3.906250
825.000000,-0.005741,0.009789,16.888905,3.906250
826.000000,-0.007038,0.009779,16.878172,3.906250
827.000000,-0.008183,0.009770,16.874363,3.906250
828.000000,-0.009480,0.009772,16.877478,3.906250
829.000000,-0.012379,0.009771,16.886976,3.906250
830.000000,-0.008946,0.009725,16.883080,3.906250
831.000000,-0.008106,0.009718,16.893854,3.906250
832.000000,-0.007877,0.009717,16.910593,3.906250
833.000000,-0.005055,0.009708,16.930471,3.906250
834.000000,-0.006046,0.009687,16.959949,3.906250
835.000000,-0.012074,0.009666,16.991701,3.906250
836.000000,-0.010014,0.009651,17.025328,3.906250
837.000000,-0.010472,0.009653,17.065928,3.906250
838.000000,-0.008335,0.009635,17.103872,3.906250
839.000000,-0.005665,0.009614,17.142654,3.906250
840.000000,-0.006886,0.009613,17.191238,3.906250
841.000000,-0.009022,0.009599,17.250139,3.906250
842.000000,-0.007954,0.009586,17.309740,3.906250
843.000000,-0.011921,0.009564,17.379204,3.906250
844.000000,-0.009632,0.009543,17.443619,3.906250
845.000000,-0.008259,0.009569,17.508080,3.906250
846.000000,-0.010243,0.009592,17.576246,3.906250
847.000000,-0.009632,0.009590,17.649084,3.906250
848.000000,-0.010395,0.009586,17.746206,3.906250
849.000000,-0.009251,0.009568,17.849318,3.906250
850.000000,-0.011616,0.009588,17.949398,3.906250
851.000000,-0.010624,0.009604,18.048481,3.906250
852.000000,-0.010319,0.009618,18.146208,3.906250
853.000000,-0.008793,0.009617,18.243332,3.906250
854.000000,-0.011006,0.009639,18.348255,3.906250
855.000000,-0.012303,0.009646,18.453800,3.906250
856.000000,-0.011387,0.009651,18.550501,3.906250
857.000000,-0.011845,0.009641,18.641632,3.906250
858.000000,-0.010853,0.009619,18.736294,3.906250
859.000000,-0.009251,0.009628,18.824936,3.906250
860.000000,-0.009022,0.009650,18.910551,3.906250
861.000000,-0.009709,0.009660,18.994471,3.906250
862.000000,-0.008564,0.009664,19.075193,3.906250
863.000000,-0.011311,0.009666,19.158878,3.906250
864.000000,-0.010319,0.009629,19.234623,3.906250
865.000000,-0.005589,0.009585,19.305868,3.906250
866.000000,-0.008030,0.009559,19.373423,3.906250
867.000000,-0.008030,0.009531,19.437160,3.906250
868.000000,-0.011921,0.009562,19.494780,7.812500
869.000000,-0.010395,0.009561,19.551386,7.812500
870.000000,-0.007420,0.009555,19.603203,7.812500
871.000000,-0.003452,0.009536,19.649397,7.812500
872.000000,-0.007343,0.009536,19.693148,7.812500
873.000000,-0.004978,0.009521,19.730368,7.812500
874.000000,-0.007420,0.009522,19.765648,7.812500
875.000000,-0.012303,0.009528,19.793497,7.812500
876.000000,-0.010090,0.009510,19.813723,7.812500
877.000000,-0.009022,0.009498,19.829721,7.812500
878.000000,-0.009937,0.009499,19.843904,7.812500
879.000000,-0.010166,0.009530,19.854280,7.812500
880.000000,-0.009251,0.009563,19.863007,7.812500
881.000000,-0.009251,0.009575,19.868999,7.812500
882.000000,-0.010929,0.009583,19.873047,7.812500
883.000000,-0.010395,0.009569,19.875666,7.812500
884.000000,-0.011234,0.009588,19.876406,7.812500
885.000000,-0.009709,0.009620,19.874571,7.812500
886.000000,-0.013066,0.009685,19.871267,7.812500
887.000000,-0.014286,0.009739,19.864105,7.812500
888.000000,-0.013523,0.009756,19.855997,7.812500
889.000000,-0.017185,0.009839,19.844954,7.812500
890.000000,-0.015736,0.009894,19.832588,7.812500
891.000000,-0.011997,0.009928,19.820564,7.812500
892.000000,-0.009785,0.009924,19.805387,7.812500
893.000000,-0.008183,0.009938,19.788000,7.812500
894.000000,-0.006123,0.009936,19.769508,7.812500
895.000000,-0.009861,0.009889,19.746992,7.812500
896.000000,-0.012303,0.009865,19.723440,7.812500
897.000000,-0.011082,0.009882,19.698746,7.812500
898.000000,-0.011006,0.009887,19.673065,7.812500
899.000000,-0.007115,0.009863,19.647785,7.812500
900.000000,-0.004788,0.009830,19.619246,7.812500
901.000000,-0.004559,0.009803,19.586620,7.812500
902.000000,-0.003262,0.009771,19.555220,7.812500
903.000000,-0.002880,0.009683,19.521509,7.812500
904.000000,-0.003033,0.009636,19.509146,7.812500
905.000000,-0.003414,0.009600,19.495462,7.812500
906.000000,-0.002575,0.009581,19.480194,7.812500
907.000000,-0.001659,0.009527,19.459291,7.812500
908.000000,-0.004482,0.009477,19.436241,7.812500
909.000000,-0.007610,0.009436,19.410345,7.812500
910.000000,-0.007687,0.009417,19.383083,7.812500
911.000000,-0.006237,0.009412,19.359087,7.812500
912.000000,-0.009518,0.009400,19.331139,7.812500
913.000000,-0.009289,0.009422,19.299154,7.812500
914.000000,-0.012875,0.009481,19.265089,7.812500
915.000000,-0.017681,0.009570,19.227234,7.812500
916.000000,-0.018902,0.009711,19.185469,7.812500
917.000000,-0.021115,0.009886,19.146769,7.812500
918.000000,-0.024166,0.010141,19.108772,7.812500
919.000000,-0.020886,0.010315,19.068670,7.812500
920.000000,-0.014858,0.010387,19.022451,7.812500
921.000000,-0.013714,0.010438,18.973444,7.812500
922.000000,-0.014172,0.010503,18.926857,7.812500
923.000000,-0.017834,0.010584,18.879330,7.812500
924.000000,-0.020504,0.010732,18.834742,7.812500
925.000000,-0.023785,0.010977,18.787365,7.812500
926.000000,-0.016918,0.011085,18.740757,7.812500
927.000000,-0.012188,0.011121,18.687981,7.812500
928.000000,-0.003185,0.011086,18.637695,7.812500
929.000000,-0.000362,0.011016,18.586027,7.812500
930.000000,-0.000591,0.010980,18.533041,7.812500
931.000000,-0.000591,0.010950,18.488567,7.812500
932.000000,0.001698,0.010923,18.437845,7.812500
933.000000,0.003529,0.010917,18.390400,7.812500
934.000000,0.007877,0.010929,18.343840,7.812500
935.000000,0.002842,0.010866,18.297949,7.812500
936.000000,0.006580,0.010839,18.249874,7.812500
937.000000,0.011540,0.010850,18.207344,7.812500
938.000000,0.008488,0.010851,18.164579,7.812500
939.000000,0.008793,0.010872,18.117882,7.812500
940.000000,0.010319,0.010899,18.075941,7.812500
941.000000,0.008717,0.010897,18.038725,3.906250
942.000000,-0.001583,0.010869,18.002399,3.906250
943.000000,-0.006390,0.010822,17.966135,3.906250
944.000000,-0.006924,0.010802,17.937241,3.906250
945.000000,-0.002041,0.010772,17.908712,3.906250
946.000000,-0.004559,0.010733,17.879946,3.906250
947.000000,-0.003185,0.010694,17.850626,3.906250
948.000000,-0.006008,0.010660,17.827404,3.906250
949.000000,-0.013867,0.010710,17.802557,3.906250
950.000000,-0.016613,0.010776,17.785301,3.906250
951.000000,-0.014172,0.010817,17.774811,3.906250
952.000000,-0.020962,0.010970,17.761984,3.906250
953.000000,-0.018750,0.011094,17.751215,3.906250
954.000000,-0.023404,0.011285,17.745630,3.906250
955.000000,-0.027523,0.011550,17.746899,3.906250
956.000000,-0.027523,0.011819,17.755356,3.906250
957.000000,-0.024701,0.012016,17.770643,3.906250
958.000000,-0.021344,0.012156,17.771423,3.906250
959.000000,-0.016384,0.012231,17.786612,3.906250
960.000000,-0.014630,0.012285,17.808243,3.906250
961.000000,-0.015087,0.012339,17.832533,3.906250
962.000000,-0.020275,0.012475,17.866678,3.906250
963.000000,-0.025692,0.012686,17.902763,3.906250
964.000000,-0.025540,0.012900,17.940062,3.906250
965.000000,-0.020199,0.013045,17.983826,3.906250
966.000000,-0.017071,0.013132,18.024080,3.906250
967.000000,-0.015087,0.013194,18.064568,3.906250
968.000000,-0.014324,0.013217,18.114824,3.906250
969.000000,-0.014477,0.013256,18.175434,3.906250
970.000000,-0.011654,0.013286,18.236216,3.906250
971.000000,-0.007763,0.013304,18.306734,3.906250
972.000000,-0.013256,0.013350,18.371326,3.906250
973.000000,-0.012875,0.013403,18.435539,3.906250
974.000000,-0.017147,0.013492,18.503319,3.906250
975.000000,-0.021954,0.013614,18.575523,3.906250
976.000000,-0.018750,0.013705,18.672947,3.906250
977.000000,-0.014706,0.013754,18.776167,3.906250
978.000000,-0.010052,0.013755,18.876150,3.906250
979.000000,-0.002956,0.013721,18.975142,3.906250
980.000000,0.002308,0.013691,19.071970,3.906250
981.000000,-0.007305,0.013680,19.167995,3.906250
982.000000,-0.016842,0.013739,19.271805,3.906250
983.000000,-0.019970,0.013845,19.375622,3.906250
984.000000,-0.013485,0.013865,19.470272,3.906250
985.000000,-0.007458,0.013851,19.559338,3.906250
986.000000,-0.005474,0.013800,19.652506,3.906250
987.000000,-0.003414,0.013730,19.740255,3.906250
988.000000,-0.004177,0.013670,19.824957,3.906250
989.000000,0.000553,0.013561,19.907270,3.906250
990.000000,0.002003,0.013471,19.985682,3.906250
991.000000,-0.002422,0.013420,20.067078,3.906250
992.000000,-0.001125,0.013385,20.140907,3.906250
993.000000,0.001545,0.013361,20.211025,3.906250
994.000000,0.000706,0.013347,20.277742,7.812500
995.000000,-0.002804,0.013313,20.340584,7.812500
996.000000,0.003910,0.013262,20.397234,7.812500
997.000000,0.007877,0.013239,20.453369,7.812500
998.000000,0.003376,0.013198,20.505064,7.812500
999.000000,-0.002956,0.013182,20.551239,7.812500
1000.000000,-0.006123,0.013187,20.595150,7.812500
1001.000000,-0.011616,0.013230,20.632715,7.812500
1002.000000,-0.007801,0.013249,20.668562,7.812500
1003.000000,-0.010166,0.013285,20.696964,7.812500
1004.000000,-0.006123,0.013296,20.718014,7.812500
1005.000000,-0.001164,0.013292,20.735193,7.812500
1006.000000,-0.003223,0.013293,20.750769,7.812500
1007.000000,-0.007877,0.013316,20.762814,7.812500
1008.000000,-0.024586,0.013533,20.773617,7.812500
1009.000000,-0.042134,0.014154,20.782131,7.812500
1010.000000,-0.033818,0.014532,20.789125,7.812500
1011.000000,-0.021839,0.014682,20.795153,7.812500
1012.000000,-0.007725,0.014671,20.799763,7.812500
1013.000000,-0.005665,0.014653,20.802214,7.812500
1014.000000,-0.010319,0.014632,20.803663,7.812500
1015.000000,-0.015278,0.014605,20.801727,7.812500
1016.000000,-0.021382,0.014640,20.799433,7.812500
1017.000000,-0.014439,0.014558,20.794313,7.812500
1018.000000,-0.017567,0.014463,20.788067,7.812500
1019.000000,-0.014820,0.014388,20.782978,7.812500
1020.000000,-0.011616,0.014358,20.775671,7.812500
1021.000000,-0.005741,0.014304,20.766785,7.812500
1022.000000,-0.003300,0.014238,20.757191,7.812500
1023.000000,0.001659,0.014127,20.743792,7.812500
1024.000000,0.007687,0.013998,20.729597,7.812500
1025.000000,0.016690,0.013895,20.715158,7.812500
1026.000000,0.011807,0.013842,20.700144,7.812500
1027.000000,0.002651,0.013791,20.686432,7.812500
1028.000000,-0.006580,0.013803,20.670294,7.812500
1029.000000,-0.002232,0.013805,20.650793,7.812500
1030.000000,-0.003376,0.013809,20.633305,7.812500
1031.000000,-0.000095,0.013809,20.614309,7.812500
1032.000000,0.003338,0.013812,20.617821,7.812500
1033.000000,0.005245,0.013817,20.620724,7.812500
1034.000000,0.000591,0.013795,20.622374,7.812500
1035.000000,-0.004292,0.013798,20.618887,7.812500
1036.000000,-0.012837,0.013842,20.613997,7.812500
1037.000000,-0.012455,0.013850,20.606983,7.812500
1038.000000,-0.009937,0.013860,20.599411,7.812500
1039.000000,-0.007572,0.013853,20.595934,7.812500
1040.000000,-0.009861,0.013849,20.589146,7.812500
1041.000000,-0.018025,0.013939,20.578995,7.812500
1042.000000,-0.024815,0.014157,20.567707,7.812500
1043.000000,-0.027943,0.014416,20.553759,7.812500
1044.000000,-0.022526,0.014575,20.537170,7.812500
1045.000000,-0.018254,0.014687,20.524601,7.812500
1046.000000,-0.017491,0.014784,20.513624,7.812500
1047.000000,-0.017567,0.014885,20.501411,7.812500
1048.000000,-0.017262,0.014972,20.484159,7.812500
1049.000000,-0.011769,0.014954,20.465578,7.812500
1050.000000,-0.010929,0.014902,20.450714,7.812500
1051.000000,-0.012531,0.014887,20.435896,7.812500
1052.000000,-0.009709,0.014771,20.425066,7.812500
1053.000000,-0.006352,0.014665,20.412495,7.812500
1054.000000,-0.005131,0.014486,20.401909,7.812500
1055.000000,-0.011082,0.014265,20.386194,7.812500
1056.000000,-0.010700,0.014038,20.374252,7.812500
1057.000000,-0.007496,0.013840,20.362108,7.812500
1058.000000,-0.004444,0.013681,20.349852,7.812500
1059.000000,0.000057,0.013583,20.347692,7.812500
1060.000000,0.001812,0.013505,20.340286,7.812500
1061.000000,0.004788,0.013429,20.337538,7.812500
1062.000000,0.003185,0.013279,20.336926,7.812500
1063.000000,-0.005436,0.013039,20.338293,7.812500
1064.000000,-0.011540,0.012839,20.338602,7.812500
1065.000000,-0.004673,0.012687,20.345854,7.812500
1066.000000,-0.011769,0.012627,20.353977,7.812500
1067.000000,-0.016423,0.012644,20.358856,7.812500
1068.000000,-0.018864,0.012703,20.369717,7.812500
1069.000000,-0.020542,0.012786,20.386362,7.812500
1070.000000,-0.017720,0.012856,20.404982,7.812500
1071.000000,-0.017720,0.012954,20.424732,7.812500
1072.000000,-0.019169,0.013028,20.453402,7.812500
1073.000000,-0.013447,0.013034,20.482729,7.812500
1074.000000,-0.016423,0.013024,20.512981,7.812500
1075.000000,-0.023136,0.013045,20.543619,7.812500
1076.000000,-0.028935,0.013230,20.581049,7.812500
1077.000000,-0.036564,0.013647,20.617266,7.812500
1078.000000,-0.026722,0.013869,20.661528,7.812500
1079.000000,-0.020314,0.014014,20.712862,7.812500
1080.000000,-0.017262,0.014118,20.761709,7.812500
1081.000000,-0.012760,0.014157,20.812235,7.812500
1082.000000,-0.010472,0.014095,20.868046,3.906250
1083.000000,-0.013752,0.014021,20.930788,3.906250
1084.000000,-0.017643,0.014067,21.000528,3.906250
1085.000000,-0.006123,0.014060,21.076500,3.906250
1086.000000,-0.006809,0.014066,21.135357,3.906250
1087.000000,0.003567,0.014067,21.208687,3.906250
1088.000000,-0.000095,0.014060,21.287601,3.906250
1089.000000,-0.002766,0.014063,21.367819,3.906250
1090.000000,-0.010166,0.014098,21.457172,3.906250
1091.000000,-0.012074,0.014148,21.546703,3.906250
1092.000000,-0.008106,0.014171,21.635433,3.906250
1093.000000,0.001888,0.014171,21.729717,3.906250
1094.000000,0.004635,0.014178,21.817724,3.906250
1095.000000,0.003338,0.014180,21.903933,3.906250
1096.000000,0.008297,0.014199,21.998278,3.906250
1097.000000,0.006313,0.014191,22.101381,3.906250
1098.000000,0.001202,0.014187,22.201906,3.906250
1099.000000,-0.006962,0.014201,22.310669,3.906250
1100.000000,-0.012951,0.014247,22.410269,3.906250
1101.000000,-0.016461,0.014295,22.506989,3.906250
1102.000000,-0.011501,0.014320,22.604906,3.906250
1103.000000,-0.008450,0.014308,22.704958,3.906250
1104.000000,-0.000591,0.014295,22.830189,3.906250
1105.000000,0.003529,0.014299,22.959097,3.906250
1106.000000,0.006428,0.014310,23.081861,3.906250
1107.000000,0.004292,0.014295,23.201048,3.906250
1108.000000,0.002995,0.014085,23.315613,3.906250
1109.000000,0.000629,0.013440,23.427042,7.812500
1110.000000,-0.002728,0.013011,23.544708,7.812500
1111.000000,-0.002575,0.012829,23.660196,7.812500
1112.000000,0.002918,0.012809,23.763359,7.812500
1113.000000,0.003223,0.012800,23.858231,7.812500
1114.000000,0.006123,0.012773,23.955547,7.812500
1115.000000,0.001164,0.012682,24.045065,7.812500
1116.000000,0.003681,0.012506,24.129595,7.812500
1117.000000,0.007420,0.012444,24.210199,7.812500
1118.000000,0.008793,0.012351,24.285137,7.812500
1119.000000,0.006733,0.012280,24.361963,7.812500
1120.000000,0.003910,0.012232,24.428925,7.812500
1121.000000,-0.001736,0.012219,24.490568,7.812500
1122.000000,-0.007458,0.012238,24.547260,7.812500
1123.000000,-0.014096,0.012317,24.599379,7.812500
1124.000000,-0.014324,0.012377,24.643661,7.812500
1125.000000,-0.013867,0.012342,24.686205,7.812500
1126.000000,-0.013867,0.012363,24.723154,7.812500
1127.000000,-0.018978,0.012505,24.753315,7.812500
1128.000000,-0.021878,0.012678,24.781084,7.812500
1129.000000,-0.028515,0.012993,24.803062,7.812500
1130.000000,-0.030575,0.013343,24.823399,7.812500
1131.000000,-0.030728,0.013693,24.836313,7.812500
1132.000000,-0.028210,0.013976,24.840336,7.812500
1133.000000,-0.028286,0.014250,24.840195,7.812500
1134.000000,-0.030423,0.014571,24.838694,7.812500
1135.000000,-0.037518,0.015040,24.834356,7.812500
1136.000000,-0.037900,0.015457,24.828524,7.812500
1137.000000,-0.032940,0.015755,24.820971,7.812500
1138.000000,-0.028592,0.015982,24.811527,7.812500
1139.000000,-0.029507,0.016234,24.800682,7.812500
1140.000000,-0.035000,0.016578,24.788330,7.812500
1141.000000,-0.028897,0.016731,24.773758,7.812500
1142.000000,-0.024929,0.016733,24.758230,7.812500
1143.000000,-0.017834,0.016594,24.739120,7.812500
1144.000000,-0.008297,0.016461,24.719543,7.812500
1145.000000,-0.003414,0.016363,24.697016,7.812500
1146.000000,-0.007992,0.016289,24.673691,7.812500
1147.000000,-0.018444,0.016299,24.651871,7.812500
1148.000000,-0.012036,0.016252,24.627609,7.812500
1149.000000,-0.010739,0.016244,24.602217,7.812500
1150.000000,-0.006390,0.016220,24.577068,7.812500
1151.000000,-0.000439,0.016172,24.549006,7.812500
1152.000000,0.005512,0.016152,24.521444,7.812500
1153.000000,0.005131,0.016148,24.494911,7.812500
1154.000000,0.008946,0.016164,24.467773,7.812500
1155.000000,0.013066,0.016179,24.441528,7.812500
1156.000000,0.012303,0.016191,24.413532,7.812500
1157.000000,0.003758,0.016178,24.382381,7.812500
1158.000000,-0.005169,0.016180,24.354244,7.812500
1159.000000,-0.004788,0.016187,24.325842,7.812500
1160.000000,-0.006695,0.016200,24.323305,7.812500
1161.000000,-0.011425,0.016233,24.320421,7.812500
1162.000000,-0.009594,0.016258,24.316793,7.812500
1163.000000,-0.008679,0.016272,24.307861,7.812500
1164.000000,-0.010128,0.016263,24.297626,7.812500
1165.000000,-0.004864,0.016263,24.285217,7.812500
1166.000000,-0.005932,0.016231,24.272404,7.812500
1167.000000,-0.011273,0.016187,24.264656,7.812500
1168.000000,-0.009442,0.016105,24.253691,7.812500
1169.000000,-0.019894,0.016097,24.239336,7.812500
1170.000000,-0.030728,0.016291,24.224218,7.812500
1171.000000,-0.032406,0.016516,24.206587,7.812500
1172.000000,-0.029736,0.016671,24.186529,7.812500
1173.000000,-0.011425,0.016656,24.171753,7.812500
1174.000000,-0.012875,0.016625,24.159090,7.812500
1175.000000,-0.016918,0.016550,24.145113,7.812500
1176.000000,-0.010662,0.016330,24.126196,7.812500
1177.000000,-0.005322,0.015924,24.105537,7.812500
1178.000000,-0.009365,0.015726,24.088730,7.812500
1179.000000,-0.008297,0.015617,24.072304,7.812500
1180.000000,-0.005016,0.015529,24.060699,7.812500
1181.000000,-0.002422,0.015478,24.049046,7.812500
1182.000000,0.004673,0.015450,24.039812,7.812500
1183.000000,0.002003,0.015390,24.024511,7.812500
1184.000000,-0.004559,0.015295,24.013439,7.812500
1185.000000,-0.003948,0.015288,24.002451,7.812500
1186.000000,-0.004864,0.015281,23.991106,7.812500
1187.000000,0.001240,0.015277,23.991066,7.812500
1188.000000,0.008030,0.015298,23.985407,7.812500
1189.000000,0.009251,0.015324,23.984798,7.812500
1190.000000,0.006886,0.015305,23.986069,7.812500
1191.000000,0.007649,0.015277,23.988861,7.812500
1192.000000,0.005589,0.015265,23.989902,7.812500
1193.000000,0.003529,0.015268,23.998096,7.812500
1194.000000,-0.002041,0.015263,24.006804,7.812500
1195.000000,-0.014477,0.015328,24.011627,7.812500
1196.000000,-0.010052,0.015338,24.022472,7.812500
1197.000000,-0.009365,0.015354,24.038935,7.812500
1198.000000,-0.008526,0.015377,24.056789,7.812500
1199.000000,-0.009060,0.015388,24.075165,7.812500
1200.000000,-0.009632,0.015363,24.102322,7.812500
1201.000000,-0.012837,0.015329,24.129242,7.812500
1202.000000,-0.007572,0.015304,24.156162,7.812500
1203.000000,-0.009632,0.015311,24.182102,7.812500
1204.000000,-0.013447,0.015370,24.214083,7.812500
1205.000000,-0.013905,0.015429,24.243528,7.812500
1206.000000,-0.019474,0.015538,24.280928,7.812500
1207.000000,-0.024434,0.015723,24.324902,7.812500
1208.000000,-0.025807,0.015931,24.364962,7.812500
1209.000000,-0.025425,0.016132,24.404997,7.812500
1210.000000,-0.027562,0.016364,24.449804,7.812500
1211.000000,-0.025654,0.016562,24.500322,7.812500
1212.000000,-0.020237,0.016682,24.556713,7.812500
1213.000000,-0.020542,0.016805,24.618786,7.812500
1214.000000,-0.017491,0.016885,24.661308,7.812500
1215.000000,-0.011921,0.016926,24.716986,7.812500
1216.000000,-0.010700,0.016956,24.777500,7.812500
1217.000000,-0.012074,0.016983,24.837807,7.812500
1218.000000,-0.012760,0.017008,24.906412,7.812500
1219.000000,-0.020161,0.017114,24.974396,7.812500
1220.000000,-0.022831,0.017261,25.040722,7.812500
1221.000000,-0.030613,0.017530,25.111174,7.812500
1222.000000,-0.021229,0.017642,25.173954,7.812500
1223.000000,-0.011997,0.017626,25.233809,7.812500
1224.000000,-0.003147,0.017571,25.300856,7.812500
1225.000000,0.002422,0.017518,25.375711,7.812500
1226.000000,-0.000019,0.017463,25.447243,7.812500
1227.000000,-0.001392,0.017360,25.526039,7.812500
1228.000000,0.002728,0.017224,25.594618,7.812500
1229.000000,0.003643,0.016990,25.658909,7.812500
1230.000000,0.006313,0.016724,25.724169,7.812500
1231.000000,-0.003910,0.016444,25.791483,7.812500
1232.000000,-0.016651,0.016286,25.883753,7.812500
1233.000000,-0.011234,0.016078,25.979271,7.812500
1234.000000,-0.000401,0.015787,26.067957,7.812500
1235.000000,0.000439,0.015335,26.152611,7.812500
1236.000000,0.007305,0.014877,26.232565,7.812500
1237.000000,0.012875,0.014565,26.309151,7.812500
1238.000000,0.010586,0.014321,26.391445,7.812500
1239.000000,0.008907,0.014042,26.471472,7.812500
1240.000000,-0.000706,0.013599,26.540195,7.812500
1241.000000,-0.007420,0.013309,26.601042,7.812500
1242.000000,-0.005970,0.013087,26.664272,7.812500
1243.000000,-0.007343,0.012986,26.720663,7.812500
1244.000000,-0.002842,0.012962,26.772614,7.812500
1245.000000,-0.000095,0.012958,26.820145,7.812500
1246.000000,0.001202,0.012934,26.861757,7.812500
1247.000000,-0.007725,0.012825,26.905092,7.812500
1248.000000,-0.011387,0.012819,26.941263,7.812500
1249.000000,-0.019780,0.012926,26.974710,7.812500
1250.000000,-0.017414,0.013027,27.004278,7.812500
1251.000000,-0.007725,0.013050,27.030735,7.812500
1252.000000,-0.009556,0.013073,27.049820,7.812500
1253.000000,-0.012226,0.013120,27.068392,7.812500
1254.000000,-0.014668,0.013172,27.082510,7.812500
1255.000000,-0.022526,0.013299,27.091618,7.812500
1256.000000,-0.022068,0.013425,27.099991,7.812500
1257.000000,-0.013752,0.013490,27.104982,7.812500
1258.000000,-0.015202,0.013565,27.108728,7.812500
1259.000000,-0.013752,0.013626,27.104826,7.812500
1260.000000,-0.008717,0.013638,27.094065,7.812500
1261.000000,-0.013142,0.013653,27.080683,7.812500
1262.000000,-0.008488,0.013646,27.066555,7.812500
1263.000000,-0.014973,0.013700,27.050529,7.812500
1264.000000,-0.014363,0.013738,27.033600,7.812500
1265.000000,-0.009861,0.013765,27.015152,7.812500
1266.000000,-0.008640,0.013779,26.996033,7.812500
1267.000000,-0.005665,0.013745,26.976257,7.812500
1268.000000,-0.003223,0.013716,26.955862,7.812500
1269.000000,0.001125,0.013571,26.934589,7.812500
1270.000000,-0.002461,0.013221,26.912958,7.812500
1271.000000,-0.004520,0.012826,26.888788,7.812500
1272.000000,-0.009174,0.012510,26.864380,7.812500
1273.000000,-0.008412,0.012486,26.836746,7.812500
1274.000000,-0.011616,0.012474,26.809095,7.812500
1275.000000,-0.011997,0.012417,26.784117,7.812500
1276.000000,-0.009098,0.012404,26.758482,7.812500
1277.000000,-0.010624,0.012438,26.732357,7.812500
1278.000000,-0.013218,0.012473,26.707150,7.812500
1279.000000,-0.014286,0.012527,26.679609,7.812500
1280.000000,-0.013676,0.012592,26.653133,7.812500
1281.000000,-0.016880,0.012702,26.629045,7.812500
1282.000000,-0.017338,0.012811,26.605145,7.812500
1283.000000,-0.019245,0.012954,26.583225,7.812500
1284.000000,-0.013676,0.013018,26.560408,7.812500
1285.000000,-0.009861,0.013049,26.536097,7.812500
1286.000000,-0.011234,0.013088,26.515993,7.812500
1287.000000,-0.010472,0.013129,26.496902,7.812500
1288.000000,-0.011234,0.013153,26.504126,7.812500
1289.000000,-0.017185,0.013232,26.512381,7.812500
1290.000000,-0.015202,0.013302,26.519840,7.812500
1291.000000,-0.013752,0.013351,26.522114,7.812500
1292.000000,-0.010395,0.013379,26.523127,7.812500
1293.000000,-0.005055,0.013384,26.522711,7.812500
1294.000000,-0.007267,0.013402,26.522577,7.812500
1295.000000,-0.008564,0.013351,26.528154,7.812500
1296.000000,-0.007725,0.013336,26.531223,7.812500
1297.000000,-0.003758,0.013308,26.531475,7.812500
1298.000000,0.001583,0.013282,26.531416,7.812500
1299.000000,0.000439,0.013251,26.529470,7.812500
1300.000000,0.002003,0.013218,26.525925,7.812500
1301.000000,-0.000744,0.013155,26.528309,7.812500
1302.000000,-0.010510,0.013175,26.533302,7.812500
1303.000000,-0.010662,0.013183,26.537512,7.812500
1304.000000,-0.004711,0.013123,26.537403,7.812500
1305.000000,-0.003109,0.013053,26.536270,7.812500
1306.000000,-0.002499,0.012909,26.539446,7.812500
1307.000000,0.003986,0.012682,26.543158,7.812500
1308.000000,0.006580,0.012434,26.551888,7.812500
1309.000000,0.006352,0.012188,26.560987,7.812500
1310.000000,0.000248,0.011872,26.573183,7.812500
1311.000000,-0.001736,0.011593,26.579647,7.812500
1312.000000,-0.006771,0.011435,26.590416,7.812500
1313.000000,-0.003414,0.011254,26.601665,7.812500
1314.000000,0.002613,0.011121,26.612782,7.812500
1315.000000,0.001926,0.011058,26.635031,7.812500
1316.000000,-0.005322,0.011019,26.651669,7.812500
1317.000000,-0.008068,0.010983,26.673645,7.812500
1318.000000,-0.010586,0.010959,26.698027,7.812500
1319.000000,-0.008373,0.010805,26.723629,7.812500
1320.000000,-0.005016,0.010573,26.747759,7.812500
1321.000000,-0.002728,0.010124,26.778969,7.812500
1322.000000,-0.008068,0.009931,26.810282,7.812500
1323.000000,-0.014096,0.009959,26.837778,7.812500
1324.000000,-0.015087,0.010068,26.871674,7.812500
1325.000000,-0.016308,0.010196,26.911127,7.812500
1326.000000,-0.020581,0.010402,26.951406,7.812500
1327.000000,-0.016690,0.010534,26.991034,7.812500
1328.000000,-0.014019,0.010623,27.038574,7.812500
1329.000000,-0.012799,0.010694,27.085369,7.812500
1330.000000,-0.014706,0.010776,27.131325,7.812500
1331.000000,-0.017987,0.010918,27.175482,7.812500
1332.000000,-0.018826,0.010953,27.224812,7.812500
1333.000000,-0.011959,0.010961,27.270512,7.812500
1334.000000,-0.009213,0.010999,27.323565,7.812500
1335.000000,-0.013485,0.011082,27.382051,7.812500
1336.000000,-0.011959,0.011122,27.435160,7.812500
1337.000000,-0.014172,0.011138,27.487125,7.812500
1338.000000,-0.010204,0.011134,27.542595,7.812500
1339.000000,-0.010281,0.011146,27.602402,7.812500
1340.000000,-0.006161,0.011163,27.666594,7.812500
1341.000000,-0.007992,0.011167,27.734383,7.812500
1342.000000,-0.012417,0.011220,27.780693,7.812500
1343.000000,-0.006466,0.011214,27.839550,7.812500
1344.000000,0.005360,0.011224,27.901854,7.812500
1345.000000,0.005207,0.011236,27.962757,7.812500
1346.000000,-0.005779,0.011250,28.030416,7.812500
1347.000000,-0.016918,0.011350,28.095568,7.812500
1348.000000,-0.017834,0.011433,28.156813,7.812500
1349.000000,-0.013867,0.011346,28.221529,7.812500
1350.000000,-0.009289,0.011250,28.276926,7.812500
1351.000000,-0.003491,0.011228,28.327856,7.812500
1352.000000,-0.001965,0.011189,28.383732,7.812500
1353.000000,-0.000439,0.011122,28.445936,7.812500
1354.000000,-0.000744,0.011026,28.503370,7.812500
1355.000000,-0.002193,0.010795,28.567314,7.812500
1356.000000,-0.007458,0.010594,28.619486,7.812500
1357.000000,-0.012112,0.010573,28.665953,7.812500
1358.000000,-0.015927,0.010584,28.711834,7.812500
1359.000000,-0.007839,0.010524,28.758324,7.812500
1360.000000,-0.005245,0.010501,28.829247,7.812500
1361.000000,-0.007229,0.010443,28.902292,7.812500
1362.000000,-0.010204,0.010458,28.967239,7.812500
1363.000000,-0.014096,0.010446,29.027082,7.812500
1364.000000,-0.010357,0.010399,29.081205,11.718750
1365.000000,-0.002804,0.010356,29.131071,11.718750
1366.000000,-0.005398,0.010334,29.186068,11.718750
1367.000000,-0.010815,0.010375,29.238096,11.718750
1368.000000,-0.015774,0.010489,29.277910,11.718750
1369.000000,-0.017681,0.010636,29.309013,11.718750
1370.000000,-0.013027,0.010713,29.341885,11.718750
1371.000000,-0.016766,0.010834,29.367083,11.718750
1372.000000,-0.013638,0.010881,29.387489,11.718750
1373.000000,-0.019665,0.011025,29.403679,11.718750
1374.000000,-0.018902,0.011125,29.413719,11.718750
1375.000000,-0.014477,0.011155,29.425093,11.718750
1376.000000,-0.013638,0.011201,29.428263,11.718750
1377.000000,-0.021878,0.011363,29.428234,11.718750
1378.000000,-0.023556,0.011529,29.424252,11.718750
1379.000000,-0.014935,0.011537,29.417150,11.718750
1380.000000,-0.012570,0.011525,29.402599,11.718750
1381.000000,-0.014935,0.011498,29.386152,11.718750
1382.000000,-0.014782,0.011462,29.364889,11.718750
1383.000000,-0.015927,0.011411,29.339584,11.718750
1384.000000,-0.017987,0.011471,29.314402,11.718750
1385.000000,-0.014782,0.011524,29.285490,11.718750
1386.000000,-0.010433,0.011516,29.256432,11.718750
1387.000000,-0.008221,0.011498,29.223345,11.718750
1388.000000,-0.006771,0.011463,29.184303,11.718750
1389.000000,-0.007305,0.011357,29.142534,7.812500
1390.000000,-0.008526,0.011287,29.100634,7.812500
1391.000000,-0.011654,0.011263,29.058258,7.812500
1392.000000,-0.009976,0.011259,29.015764,7.812500
1393.000000,-0.004101,0.011255,28.974384,7.812500
1394.000000,0.001164,0.011233,28.934074,7.812500
1395.000000,-0.003643,0.011206,28.893934,7.812500
1396.000000,-0.005703,0.011194,28.853355,7.812500
1397.000000,-0.003109,0.011192,28.812231,7.812500
1398.000000,-0.005932,0.011206,28.771307,7.812500
1399.000000,-0.003567,0.011212,28.728716,7.812500
1400.000000,-0.005779,0.011225,28.686436,7.812500
1401.000000,-0.006542,0.011244,28.641226,7.812500
1402.000000,-0.002880,0.011198,28.596334,7.812500
1403.000000,-0.007992,0.011176,28.554197,7.812500
1404.000000,-0.007534,0.011191,28.511930,7.812500
1405.000000,0.000706,0.011187,28.469332,7.812500
1406.000000,-0.000820,0.011185,28.427929,7.812500
1407.000000,-0.009060,0.011214,28.384615,7.812500
1408.000000,-0.012417,0.011264,28.342886,7.812500
1409.000000,-0.012722,0.011318,28.304228,7.812500
1410.000000,-0.012722,0.011389,28.266609,7.812500
1411.000000,-0.007916,0.011415,28.231792,7.812500
1412.000000,-0.004482,0.011404,28.196671,7.812500
1413.000000,-0.008373,0.011429,28.160749,7.812500
1414.000000,-0.010891,0.011478,28.129795,7.812500
1415.000000,-0.014248,0.011565,28.100534,7.812500
1416.000000,-0.011807,0.011613,28.098755,7.812500
1417.000000,-0.017910,0.011722,28.098537,7.812500
1418.000000,-0.023632,0.011911,28.097860,7.812500
1419.000000,-0.015393,0.011981,28.092304,7.812500
1420.000000,-0.006466,0.011988,28.086130,7.812500
1421.000000,-0.008984,0.012018,28.079319,7.812500
1422.000000,-0.006161,0.012007,28.073841,7.812500
1423.000000,-0.011654,0.011981,28.074598,7.812500
1424.000000,-0.019589,0.012046,28.073734,7.812500
1425.000000,-0.007229,0.011957,28.070505,7.812500
1426.000000,-0.013561,0.011856,28.066919,7.812500
1427.000000,-0.015621,0.011842,28.062620,7.812500
1428.000000,-0.008297,0.011787,28.058258,7.812500
1429.000000,-0.006085,0.011734,28.059893,7.812500
1430.000000,-0.008526,0.011672,28.065186,7.812500
1431.000000,-0.009289,0.011570,28.070271,7.812500
1432.000000,-0.007000,0.011437,28.070574,7.812500
1433.000000,-0.001583,0.011376,28.072594,7.812500
1434.000000,0.002232,0.011341,28.079895,7.812500
1435.000000,-0.001888,0.011262,28.088108,7.812500
1436.000000,-0.009442,0.011238,28.102144,7.812500
1437.000000,-0.009747,0.011191,28.115984,7.812500
1438.000000,-0.011654,0.011205,28.133461,7.812500
1439.000000,-0.008297,0.011188,28.145683,7.812500
1440.000000,-0.005779,0.011186,28.162603,7.812500
1441.000000,-0.000515,0.011158,28.180473,7.812500
1442.000000,-0.002041,0.011090,28.198923,7.812500
1443.000000,-0.005322,0.011084,28.229029,7.812500
1444.000000,-0.006390,0.011090,28.253433,7.812500
1445.000000,-0.004864,0.011088,28.283638,7.812500
1446.000000,-0.005322,0.011086,28.316336,7.812500
1447.000000,-0.007458,0.010981,28.350800,7.812500
1448.000000,-0.006313,0.010854,28.384455,7.812500
1449.000000,-0.007916,0.010794,28.425890,7.812500
1450.000000,-0.012493,0.010826,28.467649,7.812500
1451.000000,-0.014096,0.010912,28.505348,7.812500
1452.000000,-0.011807,0.010974,28.549500,7.812500
1453.000000,-0.003567,0.010980,28.599489,7.812500
1454.000000,-0.001659,0.010981,28.650511,7.812500
1455.000000,-0.010128,0.011025,28.700720,7.812500
1456.000000,-0.005932,0.011016,28.759308,7.812500
1457.000000,-0.009976,0.010995,28.817146,7.812500
1458.000000,-0.017300,0.011015,28.874155,7.812500
1459.000000,-0.020504,0.011177,28.930119,7.812500
1460.000000,-0.017147,0.011296,28.991161,7.812500
1461.000000,-0.011654,0.011333,29.048878,7.812500
1462.000000,-0.011044,0.011340,29.114031,7.812500
1463.000000,-0.012493,0.011322,29.184053,7.812500
1464.000000,-0.010815,0.011326,29.248541,7.812500
1465.000000,-0.007992,0.011351,29.311478,7.812500
1466.000000,-0.019665,0.011507,29.377043,7.812500
1467.000000,-0.021420,0.011655,29.446646,7.812500
1468.000000,-0.024243,0.011799,29.520794,7.812500
1469.000000,-0.022259,0.011876,29.598568,7.812500
1470.000000,-0.015774,0.011910,29.653913,7.812500
1471.000000,-0.011425,0.011846,29.721733,7.812500
1472.000000,-0.006161,0.011784,29.792442,7.812500
1473.000000,-0.009136,0.011654,29.860865,7.812500
1474.000000,-0.006542,0.011519,29.935434,7.812500
1475.000000,-0.014553,0.011519,30.006742,11.718750
1476.000000,-0.014019,0.011524,30.073481,11.718750
1477.000000,-0.014706,0.011410,30.143129,11.718750
1478.000000,-0.011578,0.011224,30.202402,11.718750
1479.000000,-0.009899,0.011168,30.256392,11.718750
1480.000000,-0.004101,0.011104,30.314690,11.718750
1481.000000,-0.002880,0.011007,30.378880,11.718750
1482.000000,-0.002728,0.010911,30.437258,11.718750
1483.000000,-0.006466,0.010814,30.501656,11.718750
1484.000000,-0.009747,0.010707,30.552925,11.718750
1485.000000,0.002308,0.010607,30.596939,11.718750
1486.000000,0.002766,0.010560,30.640015,11.718750
1487.000000,-0.005093,0.010540,30.683737,11.718750
1488.000000,-0.011196,0.010577,30.752420,11.718750
1489.000000,-0.009442,0.010594,30.823172,11.718750
1490.000000,-0.009213,0.010600,30.884741,11.718750
1491.000000,-0.004253,0.010544,30.940748,11.718750
1492.000000,-0.006161,0.010515,30.991072,11.718750
1493.000000,-0.010662,0.010561,31.035458,11.718750
1494.000000,-0.009289,0.010601,31.084938,11.718750
1495.000000,-0.013790,0.010684,31.130720,11.718750
1496.000000,-0.011654,0.010733,31.162828,11.718750
1497.000000,-0.005779,0.010744,31.185940,11.718750
1498.000000,-0.007687,0.010755,31.211716,11.718750
1499.000000,-0.008297,0.010781,31.228848,11.718750
1500.000000,-0.011044,0.010822,31.241655,11.718750
1501.000000,-0.016461,0.010927,31.250662,11.718750
1502.000000,-0.013714,0.011009,31.252584,11.718750
1503.000000,-0.013638,0.011064,31.255671,11.718750
1504.000000,-0.013943,0.011126,31.249403,11.718750
1505.000000,-0.014477,0.011220,31.239161,11.718750
1506.000000,-0.015316,0.011323,31.224951,11.718750
1507.000000,-0.012722,0.011359,31.207470,11.718750
1508.000000,-0.011501,0.011349,31.182642,11.718750
1509.000000,-0.010586,0.011327,31.156174,11.718750
1510.000000,-0.012493,0.011324,31.124611,11.718750
1511.000000,-0.011578,0.011356,31.088684,11.718750
1512.000000,-0.014324,0.011437,31.052948,11.718750
1513.000000,-0.011654,0.011466,31.013346,11.718750
1514.000000,-0.008755,0.011447,30.973822,11.718750
1515.000000,-0.010967,0.011411,30.930494,11.718750
1516.000000,-0.016079,0.011463,30.881109,11.718750
1517.000000,-0.016690,0.011445,30.829062,11.718750
1518.000000,-0.018673,0.011353,30.777122,11.718750
1519.000000,-0.018826,0.011405,30.724710,11.718750
1520.000000,-0.012951,0.011460,30.672516,11.718750
1521.000000,-0.007610,0.011450,30.621964,11.718750
1522.000000,-0.008297,0.011463,30.572662,11.718750
1523.000000,0.001087,0.011404,30.524002,11.718750
1524.000000,0.005894,0.011250,30.475634,11.718750
1525.000000,0.004673,0.011237,30.426886,11.718750
1526.000000,0.002689,0.011158,30.378887,11.718750
1527.000000,-0.012722,0.011121,30.329317,11.718750
1528.000000,-0.015774,0.011202,30.280298,11.718750
1529.000000,-0.007000,0.011207,30.228607,7.812500
1530.000000,0.001164,0.011175,30.177679,7.812500
1531.000000,0.010166,0.011183,30.129810,7.812500
1532.000000,0.014134,0.011250,30.082109,7.812500
1533.000000,0.012760,0.011321,30.034624,7.812500
1534.000000,0.009098,0.011355,29.988705,7.812500
1535.000000,0.004063,0.011361,29.941658,7.812500
1536.000000,-0.000668,0.011322,29.896547,7.812500
1537.000000,0.001469,0.011281,29.854780,7.812500
1538.000000,0.000706,0.011221,29.814150,7.812500
1539.000000,0.001698,0.011191,29.776346,7.812500
1540.000000,-0.002117,0.011178,29.738323,7.812500
1541.000000,0.002003,0.011180,29.699587,7.812500
1542.000000,0.000019,0.011178,29.666203,7.812500
1543.000000,-0.008602,0.011198,29.635077,7.812500
1544.000000,-0.010967,0.011234,29.633133,7.812500
1545.000000,-0.010815,0.011275,29.632563,7.812500
1546.000000,-0.011959,0.011326,29.631762,7.812500
1547.000000,-0.009365,0.011340,29.625757,7.812500
1548.000000,-0.008831,0.011357,29.620512,7.812500
1549.000000,-0.010128,0.011375,29.614864,7.812500
1550.000000,-0.015469,0.011411,29.610971,7.812500
1551.000000,-0.017376,0.011456,29.615208,7.812500
1552.000000,-0.014553,0.011488,29.618330,7.812500
1553.000000,-0.012951,0.011555,29.618454,7.812500
1554.000000,-0.012646,0.011623,29.618980,7.812500
1555.000000,-0.018521,0.011726,29.618900,7.812500
1556.000000,-0.017224,0.011837,29.619480,7.812500
1557.000000,-0.019589,0.011956,29.627573,7.812500
1558.000000,-0.017147,0.011954,29.640190,7.812500
1559.000000,-0.007229,0.011799,29.652927,7.812500
1560.000000,-0.004253,0.011682,29.660652,7.812500
1561.000000,-0.014019,0.011707,29.670694,7.812500
1562.000000,-0.013409,0.011732,29.687040,7.812500
1563.000000,-0.016842,0.011786,29.704985,7.812500
1564.000000,-0.016766,0.011856,29.729029,7.812500
1565.000000,-0.013256,0.011903,29.752831,7.812500
1566.000000,-0.012417,0.011805,29.779406,7.812500
1567.000000,-0.013333,0.011685,29.799814,7.812500
1568.000000,-0.013790,0.011514,29.825510,7.812500
1569.000000,-0.009518,0.011337,29.853296,7.812500
1570.000000,-0.007992,0.011255,29.881737,7.812500
1571.000000,-0.008602,0.011230,29.922995,7.812500
1572.000000,-0.015240,0.011316,29.958254,7.812500
1573.000000,-0.012417,0.011347,29.999140,7.812500
1574.000000,-0.014630,0.011422,30.042221,7.812500
1575.000000,-0.020657,0.011516,30.087013,7.812500
1576.000000,-0.011959,0.011493,30.130779,7.812500
1577.000000,-0.006542,0.011417,30.182545,7.812500
1578.000000,-0.005016,0.011369,30.234579,7.812500
1579.000000,-0.004711,0.011336,30.282196,7.812500
1580.000000,-0.002804,0.011332,30.336323,7.812500
1581.000000,-0.009823,0.011371,30.396351,7.812500
1582.000000,-0.007458,0.011392,30.457241,7.812500
1583.000000,-0.012570,0.011443,30.516870,7.812500
1584.000000,-0.010586,0.011450,30.585007,7.812500
1585.000000,-0.008679,0.011481,30.652121,7.812500
1586.000000,-0.008221,0.011507,30.718246,7.812500
1587.000000,-0.011578,0.011554,30.783085,7.812500
1588.000000,-0.006771,0.011519,30.852821,7.812500
1589.000000,-0.004940,0.011491,30.918512,7.812500
1590.000000,-0.002651,0.011457,30.991518,7.812500
1591.000000,-0.009823,0.011491,31.069019,11.718750
1592.000000,-0.011273,0.011530,31.140242,11.718750
1593.000000,-0.004940,0.011491,31.209311,11.718750
1594.000000,-0.006924,0.011475,31.280535,11.718750
1595.000000,-0.016537,0.011511,31.355350,11.718750
1596.000000,-0.013333,0.011529,31.434183,11.718750
1597.000000,-0.009594,0.011554,31.516186,11.718750
1598.000000,-0.009976,0.011572,31.574245,11.718750
1599.000000,-0.009213,0.011579,31.644667,11.718750
1600.000000,-0.009022,0.011561,31.717493,11.718750
1601.000000,-0.006809,0.011464,31.787035,11.718750
1602.000000,-0.004063,0.011389,31.862429,11.718750
1603.000000,-0.013600,0.011388,31.934032,11.718750
1604.000000,-0.010700,0.011353,32.000195,11.718750
1605.000000,-0.007191,0.011283,32.068535,11.718750
1606.000000,-0.003147,0.011183,32.125404,11.718750
1607.000000,-0.009327,0.011150,32.176224,11.718750
1608.000000,-0.013981,0.011178,32.230877,11.718750
1609.000000,-0.015049,0.011229,32.290794,11.718750
1610.000000,-0.008030,0.011188,32.344185,11.718750
1611.000000,-0.009098,0.011165,32.403210,11.718750
1612.000000,-0.009174,0.011111,32.448162,11.718750
1613.000000,-0.006275,0.011067,32.485085,11.718750
1614.000000,-0.005818,0.011048,32.520523,11.718750
1615.000000,-0.009403,0.011034,32.556053,11.718750
1616.000000,-0.007877,0.010944,32.616573,11.718750
1617.000000,-0.007343,0.010841,32.678478,11.718750
1618.000000,-0.010243,0.010728,32.730637,11.718750
1619.000000,-0.011387,0.010623,32.776619,11.718750
1620.000000,-0.011540,0.010607,32.816662,11.718750
1621.000000,-0.012150,0.010649,32.850746,11.718750
1622.000000,-0.013600,0.010703,32.889999,11.718750
1623.000000,-0.018482,0.010861,32.924583,11.718750
1624.000000,-0.013828,0.010933,32.944889,11.718750
1625.000000,-0.008946,0.010959,32.955967,11.718750
1626.000000,-0.001087,0.010957,32.969646,11.718750
1627.000000,0.009365,0.010923,32.974575,11.718750
1628.000000,0.000057,0.010808,32.974770,11.718750
1629.000000,-0.019093,0.010953,32.970436,11.718750
1630.000000,-0.024891,0.011232,32.958874,11.718750
1631.000000,-0.020695,0.011376,32.948486,11.718750
1632.000000,-0.019398,0.011453,32.929535,11.718750
1633.000000,-0.014134,0.011469,32.907280,11.718750
1634.000000,-0.008564,0.011465,32.881374,11.718750
1635.000000,-0.007343,0.011481,32.853306,11.718750
1636.000000,-0.005055,0.011492,32.816833,11.718750
1637.000000,-0.001240,0.011492,32.778019,11.718750
1638.000000,-0.008640,0.011524,32.733780,11.718750
1639.000000,-0.010014,0.011566,32.685253,11.718750
1640.000000,-0.009861,0.011606,32.637150,11.718750
1641.000000,-0.010624,0.011653,32.586475,11.718750
1642.000000,-0.015965,0.011762,32.536671,11.718750
1643.000000,-0.018711,0.011879,32.482697,11.718750
1644.000000,-0.011616,0.011885,32.422817,11.718750
1645.000000,-0.002842,0.011839,32.360893,11.718750
1646.000000,-0.001850,0.011780,32.298920,11.718750
1647.000000,-0.006962,0.011763,32.236767,11.718750
1648.000000,-0.011845,0.011790,32.175266,11.718750
1649.000000,-0.008869,0.011780,32.115574,11.718750
1650.000000,-0.002918,0.011681,32.057003,11.718750
1651.000000,0.000820,0.011552,31.999117,11.718750
1652.000000,0.002956,0.011463,31.942158,11.718750
1653.000000,-0.003605,0.011396,31.885759,11.718750
1654.000000,-0.001621,0.011327,31.830610,11.718750
1655.000000,-0.006657,0.011194,31.774115,11.718750
1656.000000,-0.013600,0.011144,31.718170,11.718750
1657.000000,-0.010472,0.011020,31.659714,11.718750
1658.000000,-0.007038,0.010909,31.602440,11.718750
1659.000000,-0.003605,0.010891,31.549192,11.718750
1660.000000,-0.001698,0.010884,31.496742,11.718750
1661.000000,-0.000935,0.010793,31.444355,11.718750
1662.000000,-0.009632,0.010753,31.394220,11.718750
1663.000000,-0.009480,0.010663,31.342920,11.718750
1664.000000,-0.009251,0.010570,31.293684,11.718750
1665.000000,-0.001316,0.010488,31.248457,11.718750
1666.000000,-0.011311,0.010475,31.204762,11.718750
1667.000000,-0.014439,0.010490,31.164896,11.718750
1668.000000,-0.008259,0.010432,31.125284,11.718750
1669.000000,-0.014668,0.010491,31.084906,11.718750
1670.000000,-0.013447,0.010547,31.049923,11.718750
1671.000000,-0.010700,0.010566,31.018167,11.718750
1672.000000,-0.011082,0.010514,31.016630,11.718750
1673.000000,-0.011616,0.010505,31.017378,11.718750
1674.000000,-0.013523,0.010490,31.017736,11.718750
1675.000000,-0.013981,0.010379,31.012819,11.718750
1676.000000,-0.009937,0.010358,31.009253,11.718750
1677.000000,-0.008869,0.010375,31.005573,11.718750
1678.000000,-0.004826,0.010374,31.004337,11.718750
1679.000000,-0.007572,0.010391,31.012165,11.718750
1680.000000,-0.005283,0.010401,31.019146,11.718750
1681.000000,-0.010395,0.010406,31.023821,11.718750
1682.000000,-0.014134,0.010475,31.029484,11.718750
1683.000000,-0.015049,0.010508,31.034569,11.718750
1684.000000,-0.016804,0.010589,31.040577,11.718750
1685.000000,-0.011158,0.010612,31.054832,11.718750
1686.000000,-0.000019,0.010580,31.074205,11.718750
1687.000000,-0.000858,0.010517,31.094252,11.718750
1688.000000,-0.004749,0.010506,31.109890,11.718750
1689.000000,-0.013600,0.010582,31.127871,11.718750
1690.000000,-0.013752,0.010668,31.152794,11.718750
1691.000000,-0.011769,0.010687,31.179832,11.718750
1692.000000,-0.010472,0.010679,31.213379,11.718750
1693.000000,-0.013828,0.010757,31.247213,11.718750
1694.000000,-0.008488,0.010768,31.284601,11.718750
1695.000000,-0.011234,0.010700,31.316055,11.718750
1696.000000,-0.008412,0.010650,31.353254,11.718750
1697.000000,-0.009098,0.010645,31.392933,11.718750
1698.000000,-0.010395,0.010649,31.433619,11.718750
1699.000000,-0.014057,0.010702,31.487890,11.718750
1700.000000,-0.011196,0.010723,31.536600,11.718750
1701.000000,-0.009594,0.010744,31.591421,11.718750
1702.000000,-0.007916,0.010765,31.649008,11.718750
1703.000000,-0.008450,0.010712,31.708622,11.718750
1704.000000,-0.009976,0.010705,31.767551,11.718750
1705.000000,-0.006542,0.010701,31.834944,11.718750
1706.000000,-0.006924,0.010719,31.902935,11.718750
1707.000000,-0.012570,0.010752,31.966677,11.718750
1708.000000,-0.007992,0.010691,32.037464,11.718750
1709.000000,-0.010433,0.010636,32.114578,11.718750
1710.000000,-0.009136,0.010644,32.192879,11.718750
1711.000000,-0.006847,0.010628,32.270123,11.718750
1712.000000,-0.006085,0.010605,32.356255,11.718750
1713.000000,-0.005779,0.010603,32.441589,11.718750
1714.000000,-0.006237,0.010605,32.526089,11.718750
1715.000000,-0.013561,0.010650,32.609253,11.718750
1716.000000,-0.013333,0.010704,32.697521,11.718750
1717.000000,-0.009365,0.010720,32.781540,11.718750
1718.000000,-0.008831,0.010707,32.873074,11.718750
1719.000000,-0.010510,0.010698,32.969318,11.718750
1720.000000,-0.011578,0.010699,33.058933,11.718750
1721.000000,-0.009518,0.010672,33.146191,11.718750
1722.000000,-0.013409,0.010670,33.235432,11.718750
1723.000000,-0.014477,0.010608,33.328114,11.718750
1724.000000,-0.012341,0.010589,33.424706,11.718750
1725.000000,-0.009060,0.010590,33.524315,11.718750
1726.000000,-0.009442,0.010632,33.598732,11.718750
1727.000000,-0.008602,0.010625,33.685593,11.718750
1728.000000,-0.011501,0.010687,33.774609,11.718750
1729.000000,-0.014782,0.010619,33.859783,11.718750
1730.000000,-0.016384,0.010452,33.950310,11.718750
1731.000000,-0.013104,0.010329,34.036301,11.718750
1732.000000,-0.011196,0.010206,34.115780,11.718750
1733.000000,-0.013561,0.010199,34.196724,11.718750
1734.000000,-0.015393,0.010278,34.265453,11.718750
1735.000000,-0.016766,0.010388,34.327450,11.718750
1736.000000,-0.015164,0.010486,34.393368,11.718750
1737.000000,-0.014248,0.010582,34.464100,11.718750
1738.000000,-0.012570,0.010621,34.527534,11.718750
1739.000000,-0.010052,0.010622,34.595455,11.718750
1740.000000,-0.007763,0.010604,34.647869,11.718750
1741.000000,-0.012875,0.010629,34.691242,11.718750
1742.000000,-0.016995,0.010645,34.732616,11.718750
1743.000000,-0.017529,0.010625,34.773476,11.718750
1744.000000,-0.015698,0.010677,34.839821,11.718750
1745.000000,-0.010128,0.010721,34.906765,11.718750
1746.000000,-0.007992,0.010750,34.962612,11.718750
1747.000000,-0.009060,0.010765,35.011051,11.718750
1748.000000,-0.005856,0.010716,35.052418,11.718750
1749.000000,-0.010357,0.010729,35.087067,11.718750
1750.000000,-0.008068,0.010756,35.126152,11.718750
1751.000000,-0.002499,0.010758,35.159473,11.718750
1752.000000,-0.003567,0.010760,35.177238,11.718750
1753.000000,-0.005550,0.010768,35.184750,11.718750
1754.000000,-0.004025,0.010775,35.194382,11.718750
1755.000000,-0.005474,0.010768,35.194042,11.718750
1756.000000,-0.000820,0.010682,35.188293,11.718750
1757.000000,-0.003567,0.010636,35.177235,11.718750
1758.000000,-0.005627,0.010628,35.158081,11.718750
1759.000000,-0.003109,0.010627,35.139912,11.718750
1760.000000,-0.004330,0.010634,35.112137,11.718750
1761.000000,-0.004940,0.010645,35.080231,11.718750
1762.000000,-0.005398,0.010615,35.044128,11.718750
1763.000000,-0.010891,0.010629,35.005302,11.718750
1764.000000,-0.014553,0.010688,34.957394,11.718750
1765.000000,-0.007305,0.010712,34.906624,11.718750
1766.000000,-0.008068,0.010683,34.849747,11.718750
1767.000000,-0.008526,0.010619,34.787994,11.718750
1768.000000,-0.005398,0.010600,34.726341,11.718750
1769.000000,-0.007000,0.010522,34.661674,11.718750
1770.000000,-0.010815,0.010491,34.597599,11.718750
1771.000000,-0.015698,0.010554,34.529102,11.718750
1772.000000,-0.009518,0.010539,34.454292,11.718750
1773.000000,-0.008984,0.010513,34.377003,11.718750
1774.000000,-0.011044,0.010484,34.299458,11.718750
1775.000000,-0.015774,0.010509,34.221596,11.718750
1776.000000,-0.012875,0.010541,34.144112,11.718750
1777.000000,-0.008679,0.010540,34.068504,11.718750
1778.000000,-0.006771,0.010550,33.994186,11.718750
1779.000000,-0.003262,0.010528,33.920567,11.718750
1780.000000,-0.000439,0.010515,33.847492,11.718750
1781.000000,-0.001965,0.010465,33.774883,11.718750
1782.000000,-0.003567,0.010376,33.703495,11.718750
1783.000000,-0.006390,0.010286,33.630844,11.718750
1784.000000,-0.004635,0.010158,33.558861,11.718750
1785.000000,-0.011120,0.010158,33.484299,11.718750
1786.000000,-0.005169,0.010171,33.410854,11.718750
1787.000000,-0.002422,0.010173,33.341858,11.718750
1788.000000,-0.006313,0.010182,33.273777,11.718750
1789.000000,-0.006924,0.010114,33.205769,11.718750
1790.000000,-0.008373,0.010055,33.140110,11.718750
1791.000000,-0.003719,0.009993,33.072868,11.718750
1792.000000,-0.004864,0.009950,33.007599,11.718750
1793.000000,-0.007839,0.009885,32.947132,11.718750
1794.000000,-0.006161,0.009867,32.888386,11.718750
1795.000000,-0.010128,0.009855,32.833862,11.718750
1796.000000,-0.010662,0.009877,32.779755,11.718750
1797.000000,-0.012188,0.009910,32.724701,11.718750
1798.000000,-0.013180,0.009944,32.675144,11.718750
1799.000000,-0.012188,0.009919,32.628941,11.718750
1800.000000,-0.009174,0.009898,32.614159,11.718750
1801.000000,-0.010395,0.009906,32.601768,11.718750
1802.000000,-0.012226,0.009950,32.589039,11.718750
1803.000000,-0.017185,0.010062,32.570797,11.718750
1804.000000,-0.015583,0.010133,32.554047,11.718750
1805.000000,-0.012379,0.010187,32.537071,11.718750
1806.000000,-0.010014,0.010213,32.522655,11.718750
1807.000000,-0.010929,0.010194,32.518005,11.718750
1808.000000,-0.011463,0.010227,32.512726,11.718750
1809.000000,-0.009251,0.010216,32.505074,11.718750
1810.000000,-0.011769,0.010242,32.498489,11.718750
1811.000000,-0.014286,0.010319,32.491123,11.718750
1812.000000,-0.013447,0.010388,32.484802,11.718750
1813.000000,-0.010700,0.010427,32.487225,11.718750
1814.000000,-0.007420,0.010435,32.495255,11.718750
1815.000000,-0.011158,0.010407,32.504021,11.718750
1816.000000,-0.011006,0.010379,32.508167,11.718750
1817.000000,-0.010472,0.010390,32.514771,11.718750
1818.000000,-0.011769,0.010419,32.528526,11.718750
1819.000000,-0.011006,0.010424,32.544544,11.718750
1820.000000,-0.010243,0.010410,32.567295,11.718750
1821.000000,-0.007877,0.010396,32.590363,11.718750
1822.000000,-0.005970,0.010327,32.617046,11.718750
1823.000000,-0.006809,0.010247,32.637691,11.718750
1824.000000,-0.005512,0.010188,32.664291,11.718750
1825.000000,-0.007038,0.010172,32.693424,11.718750
1826.000000,-0.005589,0.010143,32.723614,11.718750
1827.000000,-0.005055,0.010119,32.767750,11.718750
1828.000000,-0.008106,0.010086,32.806110,11.718750
1829.000000,-0.009022,0.010018,32.850750,11.718750
1830.000000,-0.009174,0.009926,32.898170,11.718750
1831.000000,-0.009785,0.009888,32.947624,11.718750
1832.000000,-0.009556,0.009870,32.996246,11.718750
1833.000000,-0.008488,0.009813,33.053772,11.718750
1834.000000,-0.001469,0.009693,33.111900,11.718750
1835.000000,-0.001698,0.009549,33.165585,11.718750
1836.000000,-0.004215,0.009437,33.226257,11.718750
1837.000000,-0.009098,0.009373,33.293594,11.718750
1838.000000,-0.012684,0.009374,33.361973,11.718750
1839.000000,-0.012684,0.009406,33.428799,11.718750
1840.000000,-0.011540,0.009445,33.505322,11.718750
1841.000000,-0.009327,0.009403,33.581360,11.718750
1842.000000,-0.009709,0.009299,33.656063,11.718750
1843.000000,-0.010090,0.009188,33.729420,11.718750
1844.000000,-0.012913,0.009144,33.808365,11.718750
1845.000000,-0.008335,0.009126,33.882759,11.718750
1846.000000,-0.007038,0.009119,33.965355,11.718750
1847.000000,-0.005512,0.009090,34.052296,11.718750
1848.000000,-0.009632,0.009122,34.132526,11.718750
1849.000000,-0.006352,0.009085,34.210320,11.718750
1850.000000,-0.006657,0.009074,34.290195,11.718750
1851.000000,-0.008488,0.009110,34.373325,11.718750
1852.000000,-0.013066,0.009197,34.461105,11.718750
1853.000000,-0.012226,0.009261,34.551708,11.718750
1854.000000,-0.010624,0.009313,34.616714,11.718750
1855.000000,-0.007191,0.009325,34.693726,11.718750
1856.000000,-0.002689,0.009328,34.773163,11.718750
1857.000000,-0.003071,0.009326,34.848957,11.718750
1858.000000,-0.003223,0.009315,34.930084,11.718750
1859.000000,-0.010090,0.009364,35.006001,11.718750
1860.000000,-0.009174,0.009399,35.075977,11.718750
1861.000000,-0.007725,0.009418,35.147732,11.718750
1862.000000,-0.005894,0.009421,35.206963,11.718750
1863.000000,-0.008640,0.009397,35.259216,11.718750
1864.000000,-0.008946,0.009327,35.315182,11.718750
1865.000000,-0.010624,0.009359,35.376324,11.718750
1866.000000,-0.012608,0.009409,35.430389,11.718750
1867.000000,-0.010014,0.009424,35.488865,11.718750
1868.000000,-0.008793,0.009449,35.531895,11.718750
1869.000000,-0.013600,0.009521,35.566036,11.718750
1870.000000,-0.013294,0.009552,35.598434,11.718750
1871.000000,-0.011311,0.009490,35.630169,11.718750
1872.000000,-0.012303,0.009522,35.687508,11.718750
1873.000000,-0.011616,0.009550,35.745617,11.718750
1874.000000,-0.009403,0.009533,35.793293,11.718750
1875.000000,-0.009556,0.009450,35.833313,11.718750
1876.000000,-0.008869,0.009404,35.866226,11.718750
1877.000000,-0.013828,0.009465,35.892941,11.718750
1878.000000,-0.016270,0.009580,35.924206,11.718750
1879.000000,-0.012760,0.009659,35.949478,11.718750
1880.000000,-0.011769,0.009730,35.959259,11.718750
1881.000000,-0.008183,0.009763,35.958782,11.718750
1882.000000,-0.005360,0.009771,35.960442,11.718750
1883.000000,-0.007496,0.009779,35.952164,11.718750
1884.000000,-0.009327,0.009812,35.938583,11.718750
1885.000000,-0.006504,0.009771,35.919922,11.718750
1886.000000,-0.007267,0.009784,35.893261,11.718750
1887.000000,-0.006352,0.009802,35.867630,11.718750
1888.000000,-0.005055,0.009794,35.832542,11.718750
1889.000000,-0.010624,0.009827,35.793491,11.718750
1890.000000,-0.007877,0.009823,35.750435,11.718750
1891.000000,-0.006733,0.009839,35.704735,11.718750
1892.000000,-0.004292,0.009837,35.649895,11.718750
1893.000000,-0.008259,0.009840,35.592655,11.718750
1894.000000,-0.011845,0.009892,35.529388,11.718750
1895.000000,-0.011921,0.009912,35.461281,11.718750
1896.000000,-0.008717,0.009893,35.393379,11.718750
1897.000000,-0.005894,0.009835,35.322742,11.718750
1898.000000,-0.005741,0.009763,35.252926,11.718750
1899.000000,-0.004368,0.009697,35.178825,11.718750
1900.000000,-0.008106,0.009687,35.098515,11.718750
1901.000000,-0.017491,0.009789,35.015911,11.718750
1902.000000,-0.018177,0.009881,34.933167,11.718750
1903.000000,-0.019245,0.009919,34.850254,11.718750
1904.000000,-0.012989,0.009881,34.767899,11.718750
1905.000000,-0.003986,0.009812,34.687630,11.718750
1906.000000,-0.005436,0.009775,34.608833,11.718750
1907.000000,-0.007725,0.009745,34.530842,11.718750
1908.000000,-0.012303,0.009755,34.453590,11.718750
1909.000000,-0.012531,0.009792,34.376984,11.718750
1910.000000,-0.016194,0.009855,34.301548,11.718750
1911.000000,-0.011769,0.009821,34.224869,11.718750
1912.000000,-0.013294,0.009819,34.149223,11.718750
1913.000000,-0.010166,0.009814,34.071281,11.718750
1914.000000,-0.008869,0.009826,33.994411,11.718750
1915.000000,-0.006886,0.009786,33.921951,11.718750
1916.000000,-0.007572,0.009754,33.850197,11.718750
1917.000000,-0.007038,0.009723,33.778820,11.718750
1918.000000,-0.009480,0.009698,33.709545,11.718750
1919.000000,-0.009403,0.009681,33.639301,11.718750
1920.000000,-0.003910,0.009634,33.571518,11.718750
1921.000000,-0.005894,0.009620,33.508709,11.718750
1922.000000,-0.010090,0.009655,33.447620,11.718750
1923.000000,-0.011616,0.009700,33.390812,11.718750
1924.000000,-0.003300,0.009690,33.334354,11.718750
1925.000000,-0.003452,0.009671,33.277023,11.718750
1926.000000,-0.005207,0.009669,33.225834,11.718750
1927.000000,-0.005207,0.009670,33.178154,11.718750
1928.000000,-0.008640,0.009674,33.162697,11.718750
1929.000000,-0.011158,0.009696,33.149014,11.718750
1930.000000,-0.008030,0.009686,33.135559,11.718750
1931.000000,-0.006733,0.009660,33.116798,11.718750
1932.000000,-0.004978,0.009626,33.099823,11.718750
1933.000000,-0.004063,0.009597,33.083176,11.718750
1934.000000,-0.001545,0.009597,33.068981,11.718750
1935.000000,-0.004673,0.009607,33.064568,11.718750
1936.000000,-0.005055,0.009611,33.059448,11.718750
1937.000000,-0.006123,0.009587,33.051941,11.718750
1938.000000,-0.009098,0.009546,33.045925,11.718750
1939.000000,-0.006428,0.009484,33.039322,11.718750
1940.000000,-0.003986,0.009422,33.033752,11.718750
1941.000000,-0.007496,0.009405,33.037113,11.718750
1942.000000,-0.006962,0.009381,33.046181,11.718750
1943.000000,-0.002003,0.009329,33.056099,11.718750
1944.000000,-0.003300,0.009245,33.061359,11.718750
1945.000000,-0.002155,0.009209,33.069386,11.718750
1946.000000,-0.003376,0.009189,33.084782,11.718750
1947.000000,-0.005818,0.009191,33.102680,11.718750
1948.000000,-0.007343,0.009169,33.127556,11.718750
1949.000000,-0.005818,0.009166,33.152615,11.718750
1950.000000,-0.007801,0.009175,33.181225,11.718750
1951.000000,-0.006580,0.009159,33.203987,11.718750
1952.000000,-0.006046,0.009086,33.232948,11.718750
1953.000000,-0.005436,0.009020,33.264763,11.718750
1954.000000,-0.008412,0.008996,33.297672,11.718750
1955.000000,-0.011387,0.009039,33.344704,11.718750
1956.000000,-0.011692,0.009111,33.385986,11.718750
1957.000000,-0.009251,0.009152,33.433708,11.718750
1958.000000,-0.009556,0.009196,33.484364,11.718750
1959.000000,-0.009937,0.009195,33.537148,11.718750
1960.000000,-0.008869,0.009192,33.589207,11.718750
1961.000000,-0.008564,0.009199,33.650345,11.718750
1962.000000,-0.008793,0.009222,33.712212,11.718750
1963.000000,-0.012074,0.009261,33.769657,11.718750
1964.000000,-0.014668,0.009334,33.834324,11.718750
1965.000000,-0.013142,0.009366,33.905800,11.718750
1966.000000,-0.012303,0.009361,33.978455,11.718750
1967.000000,-0.011158,0.009374,34.049610,11.718750
1968.000000,-0.012074,0.009411,34.130581,11.718750
1969.000000,-0.012913,0.009401,34.211201,11.718750
1970.000000,-0.008869,0.009349,34.290524,11.718750
1971.000000,-0.008564,0.009320,34.368462,11.718750
1972.000000,-0.008412,0.009276,34.452274,11.718750
1973.000000,-0.007420,0.009233,34.531406,11.718750
1974.000000,-0.010395,0.009244,34.618862,11.718750
1975.000000,-0.011463,0.009265,34.710747,11.718750
1976.000000,-0.015507,0.009352,34.795856,11.718750
1977.000000,-0.017720,0.009418,34.878471,11.718750
1978.000000,-0.012989,0.009367,34.963127,11.718750
1979.000000,-0.006275,0.009300,35.050980,11.718750
1980.000000,-0.005741,0.009244,35.143471,11.718750
1981.000000,-0.007572,0.009238,35.238804,11.718750
1982.000000,-0.009251,0.009269,35.308216,11.718750
1983.000000,-0.012989,0.009330,35.389698,11.718750
1984.000000,-0.012608,0.009368,35.473591,11.718750
1985.000000,-0.015278,0.009470,35.553734,11.718750
1986.000000,-0.013752,0.009541,35.639080,11.718750
1987.000000,-0.014057,0.009623,35.718948,11.718750
1988.000000,-0.012608,0.009692,35.792660,11.718750
1989.000000,-0.013218,0.009724,35.868114,11.718750
1990.000000,-0.012379,0.009771,35.930775,11.718750
1991.000000,-0.011463,0.009815,35.986309,11.718750
1992.000000,-0.014363,0.009910,36.045380,11.718750
1993.000000,-0.010319,0.009929,36.109520,11.718750
1994.000000,-0.014057,0.009958,36.166275,11.718750
1995.000000,-0.020848,0.010104,36.227383,11.718750
1996.000000,-0.017414,0.010216,36.272663,11.718750
1997.000000,-0.017109,0.010341,36.308731,11.718750
1998.000000,-0.017338,0.010470,36.342819,11.718750
1999.000000,-0.015583,0.010576,36.375999,11.718750
2000.000000,-0.013447,0.010631,36.435001,11.718750
2001.000000,-0.015583,0.010601,36.494530,11.718750
2002.000000,-0.014973,0.010551,36.543407,11.718750
2003.000000,-0.015126,0.010483,36.584442,11.718750
2004.000000,-0.017185,0.010544,36.617970,11.718750
2005.000000,-0.018482,0.010697,36.644970,11.718750
2006.000000,-0.015507,0.010795,36.676403,11.718750
2007.000000,-0.016804,0.010898,36.701595,11.718750
2008.000000,-0.015278,0.010935,36.710918,11.718750
2009.000000,-0.017185,0.010998,36.709606,11.718750
2010.000000,-0.014210,0.010971,36.710217,11.718750
2011.000000,-0.011463,0.010968,36.700562,11.718750
2012.000000,-0.012684,0.010960,36.685146,11.718750
2013.000000,-0.010777,0.010966,36.664444,11.718750
2014.000000,-0.014210,0.011022,36.635448,11.718750
2015.000000,-0.014515,0.011096,36.606873,11.718750
2016.000000,-0.015202,0.011174,36.568581,11.718750
2017.000000,-0.012684,0.011224,36.526016,11.718750
2018.000000,-0.014057,0.011272,36.479271,11.718750
2019.000000,-0.010700,0.011283,36.430046,11.718750
2020.000000,-0.009709,0.011318,36.370804,11.718750
2021.000000,-0.008564,0.011335,36.309444,11.718750
2022.000000,-0.009480,0.011330,36.241673,11.718750
2023.000000,-0.011311,0.011327,36.168472,11.718750
2024.000000,-0.012684,0.011393,36.095371,11.718750
2025.000000,-0.011158,0.011442,36.019783,11.718750
2026.000000,-0.010319,0.011477,35.944759,11.718750
2027.000000,-0.010319,0.011511,35.866638,11.718750
2028.000000,-0.008793,0.011513,35.782845,11.718750
2029.000000,-0.010700,0.011508,35.695778,11.718750
2030.000000,-0.006580,0.011499,35.608498,11.718750
2031.000000,-0.006199,0.011496,35.520790,11.718750
2032.000000,-0.005055,0.011496,35.432922,11.718750
2033.000000,-0.005589,0.011503,35.347588,11.718750
2034.000000,-0.007877,0.011529,35.264439,11.718750
2035.000000,-0.008488,0.011550,35.182827,11.718750
2036.000000,-0.009632,0.011580,35.101223,11.718750
2037.000000,-0.006428,0.011581,35.019882,11.718750
2038.000000,-0.005970,0.011561,34.940643,11.718750
2039.000000,-0.005589,0.011556,34.860863,11.718750
2040.000000,-0.002613,0.011553,34.781803,11.718750
2041.000000,-0.002995,0.011532,34.699745,11.718750
2042.000000,-0.002842,0.011515,34.618195,11.718750
2043.000000,-0.003300,0.011518,34.540539,11.718750
2044.000000,-0.003147,0.011517,34.463036,11.718750
2045.000000,-0.004826,0.011525,34.386566,11.718750
2046.000000,-0.007267,0.011543,34.312519,11.718750
2047.000000,-0.005665,0.011542,34.237968,11.718750
2048.000000,-0.005207,0.011531,34.166077,11.718750
2049.000000,-0.005894,0.011531,34.100044,11.718750
2050.000000,-0.003071,0.011509,34.034943,11.718750
2051.000000,-0.001774,0.011491,33.973751,11.718750
2052.000000,-0.002079,0.011477,33.913441,11.718750
2053.000000,-0.003986,0.011471,33.852112,11.718750
2054.000000,-0.003986,0.011447,33.796867,11.718750
2055.000000,-0.005512,0.011404,33.744789,11.718750
2056.000000,-0.007496,0.011369,33.725422,11.718750
2057.000000,-0.008640,0.011364,33.708118,11.718750
2058.000000,-0.008717,0.011357,33.691170,11.718750
2059.000000,-0.006580,0.011333,33.669426,11.718750
2060.000000,-0.002003,0.011300,33.649433,11.718750
2061.000000,-0.003300,0.011272,33.629654,11.718750
2062.000000,-0.004444,0.011246,33.612354,11.718750
2063.000000,-0.008793,0.011216,33.604610,11.718750
2064.000000,-0.010319,0.011167,33.595707,11.718750
2065.000000,-0.006504,0.011109,33.584377,11.718750
2066.000000,-0.007115,0.011063,33.574646,11.718750
2067.000000,-0.008564,0.011040,33.564713,11.718750
2068.000000,-0.008412,0.011006,33.555805,11.718750
2069.000000,-0.010548,0.010981,33.555504,11.718750
2070.000000,-0.006657,0.010965,33.560696,11.718750
2071.000000,-0.005207,0.010944,33.566555,11.718750
2072.000000,-0.008946,0.010949,33.567642,11.718750
2073.000000,-0.008183,0.010954,33.571491,11.718750
2074.000000,-0.010319,0.010953,33.582706,11.718750
2075.000000,-0.011769,0.010956,33.596340,11.718750
2076.000000,-0.010014,0.010892,33.616867,11.718750
2077.000000,-0.008717,0.010782,33.637508,11.718750
2078.000000,-0.010090,0.010751,33.661648,11.718750
2079.000000,-0.010472,0.010784,33.679722,11.718750
2080.000000,-0.009632,0.010812,33.703995,11.718750
2081.000000,-0.011082,0.010842,33.731030,11.718750
2082.000000,-0.009709,0.010846,33.759090,11.718750
2083.000000,-0.011540,0.010830,33.801338,11.718750
2084.000000,-0.010472,0.010807,33.837685,11.718750
2085.000000,-0.008793,0.010734,33.880463,11.718750
2086.000000,-0.011463,0.010707,33.926311,11.718750
2087.000000,-0.010090,0.010663,33.974201,11.718750
2088.000000,-0.010853,0.010643,34.021343,11.718750
2089.000000,-0.011616,0.010625,34.077522,11.718750
2090.000000,-0.010014,0.010600,34.134377,11.718750
2091.000000,-0.011006,0.010595,34.186939,11.718750
2092.000000,-0.007649,0.010525,34.246353,11.718750
2093.000000,-0.008412,0.010508,34.312271,11.718750
2094.000000,-0.009709,0.010458,34.379505,11.718750
2095.000000,-0.009022,0.010288,34.444969,11.718750
2096.000000,-0.008869,0.010178,34.520256,11.718750
2097.000000,-0.006580,0.010055,34.595318,11.718750
2098.000000,-0.009403,0.009949,34.669655,11.718750
2099.000000,-0.009861,0.009876,34.742676,11.718750
2100.000000,-0.006886,0.009808,34.820843,11.718750
2101.000000,-0.005894,0.009701,34.893764,11.718750
2102.000000,-0.004597,0.009596,34.974590,11.718750
2103.000000,-0.007725,0.009508,35.059593,11.718750
2104.000000,-0.009098,0.009395,35.137852,11.718750
2105.000000,-0.006352,0.009233,35.213505,11.718750
2106.000000,-0.007954,0.009137,35.291500,11.718750
2107.000000,-0.006657,0.009006,35.372627,11.718750
2108.000000,-0.005055,0.008889,35.457226,11.718750
2109.000000,-0.005741,0.008741,35.545212,11.718750
2110.000000,-0.005207,0.008640,35.607334,11.718750
2111.000000,-0.007343,0.008595,35.682404,11.718750
2112.000000,-0.006123,0.008523,35.759277,11.718750
2113.000000,-0.007877,0.008491,35.832523,11.718750
2114.000000,-0.006504,0.008397,35.911240,11.718750
2115.000000,-0.008183,0.008311,35.983799,11.718750
2116.000000,-0.009174,0.008222,36.048737,11.718750
2117.000000,-0.005665,0.008143,36.115704,11.718750
2118.000000,-0.007267,0.008054,36.170212,11.718750
2119.000000,-0.007649,0.008019,36.219151,11.718750
2120.000000,-0.009098,0.008012,36.272552,11.718750
2121.000000,-0.008946,0.008016,36.331436,11.718750
2122.000000,-0.005970,0.007982,36.382683,11.718750
2123.000000,-0.007343,0.007936,36.436935,11.718750
2124.000000,-0.010700,0.007906,36.476116,11.718750
2125.000000,-0.007572,0.007864,36.505714,11.718750
2126.000000,-0.007725,0.007834,36.534409,11.718750
2127.000000,-0.010166,0.007832,36.561676,11.718750
2128.000000,-0.010243,0.007849,36.614952,11.718750
2129.000000,-0.010472,0.007846,36.668365,11.718750
2130.000000,-0.008412,0.007864,36.709965,11.718750
2131.000000,-0.009098,0.007892,36.745056,11.718750
2132.000000,-0.006504,0.007903,36.774162,11.718750
2133.000000,-0.008946,0.007933,36.794724,11.718750
2134.000000,-0.009251,0.007948,36.819946,11.718750
2135.000000,-0.010929,0.007978,36.840427,11.718750
2136.000000,-0.011463,0.008002,36.845123,11.718750
2137.000000,-0.010777,0.008049,36.839737,11.718750
2138.000000,-0.008946,0.008076,36.836464,11.718750
2139.000000,-0.008335,0.008100,36.823357,11.718750
2140.000000,-0.005283,0.008113,36.804211,11.718750
2141.000000,-0.009480,0.008163,36.779343,11.718750
2142.000000,-0.013600,0.008270,36.745899,11.718750
2143.000000,-0.012837,0.008363,36.714451,11.718750
2144.000000,-0.009480,0.008410,36.673973,11.718750
2145.000000,-0.009556,0.008451,36.630150,11.718750
2146.000000,-0.009480,0.008473,36.582546,11.718750
2147.000000,-0.010319,0.008516,36.531933,11.718750
2148.000000,-0.008412,0.008542,36.470432,11.718750
2149.000000,-0.010014,0.008580,36.408577,11.718750
2150.000000,-0.010243,0.008636,36.341156,11.718750
2151.000000,-0.010472,0.008697,36.268398,11.718750
2152.000000,-0.010777,0.008761,36.195347,11.718750
2153.000000,-0.010090,0.008810,36.118900,11.718750
2154.000000,-0.010929,0.008869,36.043594,11.718750
2155.000000,-0.012150,0.008935,35.965611,11.718750
2156.000000,-0.011311,0.008975,35.882133,11.718750
2157.000000,-0.010853,0.008999,35.795101,11.718750
2158.000000,-0.008259,0.008994,35.707485,11.718750
2159.000000,-0.011845,0.009048,35.619579,11.718750
2160.000000,-0.012989,0.009139,35.532032,11.718750
2161.000000,-0.009098,0.009178,35.447273,11.718750
2162.000000,-0.008640,0.009208,35.364784,11.718750
2163.000000,-0.007801,0.009199,35.284019,11.718750
2164.000000,-0.012608,0.009227,35.202862,11.718750
2165.000000,-0.014591,0.009319,35.121330,11.718750
2166.000000,-0.012608,0.009377,35.041801,11.718750
2167.000000,-0.009098,0.009382,34.962063,11.718750
2168.000000,-0.006657,0.009368,34.883636,11.718750
2169.000000,-0.009098,0.009353,34.802563,11.718750
2170.000000,-0.010395,0.009387,34.721897,11.718750
2171.000000,-0.009556,0.009421,34.645012,11.718750
2172.000000,-0.007877,0.009412,34.568340,11.718750
2173.000000,-0.009022,0.009419,34.492794,11.718750
2174.000000,-0.008106,0.009398,34.419617,11.718750
2175.000000,-0.010014,0.009377,34.346046,11.718750
2176.000000,-0.011082,0.009389,34.275188,11.718750
2177.000000,-0.007420,0.009378,34.210278,11.718750
2178.000000,-0.008640,0.009364,34.146355,11.718750
2179.000000,-0.005055,0.009319,34.086338,11.718750
2180.000000,-0.004902,0.009282,34.027271,11.718750
2181.000000,-0.006962,0.009241,33.967201,11.718750
2182.000000,-0.007496,0.009221,33.913315,11.718750
2183.000000,-0.008946,0.009192,33.862583,11.718750
2184.000000,-0.010014,0.009187,33.844151,11.718750
2185.000000,-0.009632,0.009195,33.828037,11.718750
2186.000000,-0.007725,0.009156,33.812500,11.718750
2187.000000,-0.006733,0.009125,33.792572,11.718750
2188.000000,-0.006809,0.009086,33.773987,11.718750
2189.000000,-0.009174,0.009058,33.755520,11.718750
2190.000000,-0.010243,0.009061,33.739635,11.718750
2191.000000,-0.007801,0.009027,33.733192,11.718750
2192.000000,-0.006733,0.009020,33.725822,11.718750
2193.000000,-0.008412,0.009020,33.716354,11.718750
2194.000000,-0.010395,0.009028,33.708427,11.718750
2195.000000,-0.009251,0.009030,33.700333,11.718750
2196.000000,-0.011006,0.009054,33.693127,11.718750
2197.000000,-0.010700,0.009093,33.694172,11.718750
2198.000000,-0.010777,0.009108,33.700253,11.718750
2199.000000,-0.011082,0.009122,33.707676,11.718750
2200.000000,-0.008831,0.009139,33.710560,11.718750
2201.000000,-0.007839,0.009153,33.716156,11.718750
2202.000000,-0.006619,0.009166,33.729279,11.718750
2203.000000,-0.008602,0.009174,33.744633,11.718750
2204.000000,-0.010204,0.009185,33.766254,11.718750
2205.000000,-0.010052,0.009218,33.788582,11.718750
2206.000000,-0.010662,0.009245,33.814331,11.718750
2207.000000,-0.010891,0.009286,33.833141,11.718750
2208.000000,-0.010815,0.009335,33.858730,11.718750
2209.000000,-0.009365,0.009364,33.887043,11.718750
2210.000000,-0.006695,0.009373,33.916851,11.718750
2211.000000,-0.007763,0.009377,33.960938,11.718750
2212.000000,-0.006695,0.009381,33.999142,11.718750
2213.000000,-0.008373,0.009385,34.043518,11.718750
2214.000000,-0.009289,0.009408,34.091259,11.718750
2215.000000,-0.010662,0.009433,34.140755,11.718750
2216.000000,-0.008907,0.009431,34.189415,11.718750
2217.000000,-0.008831,0.009455,34.247295,11.718750
2218.000000,-0.009060,0.009470,34.307133,11.718750
2219.000000,-0.009594,0.009488,34.363144,11.718750
2220.000000,-0.007687,0.009476,34.426331,11.718750
2221.000000,-0.009289,0.009479,34.495136,11.718750
2222.000000,-0.009442,0.009507,34.565144,11.718750
2223.000000,-0.008984,0.009521,34.633179,11.718750
2224.000000,-0.009213,0.009506,34.711197,11.718750
2225.000000,-0.007610,0.009506,34.788952,11.718750
2226.000000,-0.011425,0.009543,34.865990,11.718750
2227.000000,-0.009823,0.009539,34.942326,11.718750
2228.000000,-0.010281,0.009540,35.024788,11.718750
2229.000000,-0.010510,0.009540,35.101288,11.718750
2230.000000,-0.012036,0.009579,35.185455,11.718750
2231.000000,-0.008984,0.009578,35.273636,11.718750
2232.000000,-0.010052,0.009609,35.355175,11.718750
2233.000000,-0.006847,0.009591,35.434555,11.718750
2234.000000,-0.007992,0.009580,35.514637,11.718750
2235.000000,-0.012264,0.009596,35.598080,11.718750
2236.000000,-0.011120,0.009592,35.684830,11.718750
2237.000000,-0.009365,0.009577,35.774681,11.718750
2238.000000,-0.010281,0.009591,35.838871,11.718750
2239.000000,-0.010128,0.009608,35.916805,11.718750
2240.000000,-0.007458,0.009622,35.997055,11.718750
2241.000000,-0.008068,0.009609,36.074554,11.718750
2242.000000,-0.009442,0.009559,36.156300,11.718750
2243.000000,-0.007687,0.009504,36.229839,11.718750
2244.000000,-0.007610,0.009487,36.295776,11.718750
2245.000000,-0.009289,0.009485,36.364315,11.718750
2246.000000,-0.009136,0.009481,36.420425,11.718750
2247.000000,-0.007305,0.009453,36.471546,11.718750
2248.000000,-0.007610,0.009446,36.527409,11.718750
2249.000000,-0.006695,0.009417,36.588951,11.718750
2250.000000,-0.008450,0.009399,36.642227,11.718750
2251.000000,-0.008068,0.009375,36.698673,11.718750
2252.000000,-0.008297,0.009350,36.739651,11.718750
2253.000000,-0.006619,0.009319,36.770729,11.718750
2254.000000,-0.005627,0.009272,36.800682,11.718750
2255.000000,-0.006390,0.009214,36.829189,11.718750
2256.000000,-0.007610,0.009176,36.883942,11.718750
2257.000000,-0.007916,0.009146,36.938366,11.718750
2258.000000,-0.009594,0.009159,36.980988,11.718750
2259.000000,-0.007687,0.009115,37.017487,11.718750
2260.000000,-0.006771,0.009047,37.047443,11.718750
2261.000000,-0.005627,0.009019,37.068684,11.718750
2262.000000,-0.004177,0.008987,37.094425,11.718750
2263.000000,-0.007153,0.008981,37.115074,11.718750
2264.000000,-0.009670,0.008945,37.119606,11.718750
2265.000000,-0.010586,0.008888,37.113903,11.718750
2266.000000,-0.007534,0.008831,37.110168,11.718750
2267.000000,-0.008907,0.008829,37.096432,11.718750
2268.000000,-0.007610,0.008836,37.076447,11.718750
2269.000000,-0.008526,0.008831,37.050461,11.718750
2270.000000,-0.008221,0.008808,37.015682,11.718750
2271.000000,-0.006619,0.008781,36.982800,11.718750
2272.000000,-0.007687,0.008779,36.940926,11.718750
2273.000000,-0.010204,0.008792,36.895550,11.718750
2274.000000,-0.008221,0.008793,36.846287,11.718750
2275.000000,-0.011578,0.008812,36.794228,11.718750
2276.000000,-0.011883,0.008823,36.731003,11.718750
2277.000000,-0.008984,0.008837,36.667603,11.718750
2278.000000,-0.007839,0.008830,36.598274,11.718750
2279.000000,-0.009518,0.008866,36.523350,11.718750
2280.000000,-0.008984,0.008898,36.448105,11.718750
2281.000000,-0.011044,0.008940,36.369919,11.718750
2282.000000,-0.009213,0.008956,36.292511,11.718750
2283.000000,-0.009518,0.008962,36.213123,11.718750
2284.000000,-0.010586,0.008968,36.128357,11.718750
2285.000000,-0.010967,0.008983,36.039841,11.718750
2286.000000,-0.009518,0.009001,35.950527,11.718750
2287.000000,-0.009823,0.009029,35.860909,11.718750
2288.000000,-0.010739,0.009067,35.771450,11.718750
2289.000000,-0.012417,0.009106,35.685211,11.718750
2290.000000,-0.009060,0.009093,35.601147,11.718750
2291.000000,-0.008145,0.009096,35.518871,11.718750
2292.000000,-0.011044,0.009138,35.436512,11.718750
2293.000000,-0.010815,0.009163,35.353630,11.718750
2294.000000,-0.011120,0.009172,35.273079,11.718750
2295.000000,-0.013333,0.009222,35.192406,11.718750
2296.000000,-0.010204,0.009213,35.113289,11.718750
2297.000000,-0.011349,0.009221,35.031628,11.718750
2298.000000,-0.011730,0.009232,34.949818,11.718750
2299.000000,-0.011273,0.009234,34.871677,11.718750
2300.000000,-0.010014,0.009247,34.793961,11.718750
2301.000000,-0.010777,0.009276,34.717682,11.718750
2302.000000,-0.008869,0.009295,34.643864,11.718750
2303.000000,-0.008946,0.009298,34.569897,11.718750
2304.000000,-0.012074,0.009320,34.498623,11.718750
2305.000000,-0.014515,0.009379,34.433380,11.718750
2306.000000,-0.012684,0.009404,34.369144,11.718750
2307.000000,-0.011463,0.009411,34.308750,11.718750
2308.000000,-0.011006,0.009413,34.249229,11.718750
2309.000000,-0.010243,0.009422,34.188641,11.718750
2310.000000,-0.009480,0.009446,34.134022,11.718750
2311.000000,-0.011311,0.009482,34.082691,11.718750
2312.000000,-0.012303,0.009538,34.064018,11.718750
2313.000000,-0.013905,0.009602,34.047756,11.718750
2314.000000,-0.012379,0.009637,34.032085,11.718750
2315.000000,-0.014057,0.009681,34.011978,11.718750
2316.000000,-0.012608,0.009722,33.993156,11.718750
2317.000000,-0.014057,0.009783,33.974369,11.718750
2318.000000,-0.013371,0.009832,33.958153,11.718750
2319.000000,-0.012760,0.009868,33.951427,11.718750
2320.000000,-0.011997,0.009911,33.943756,11.718750
2321.000000,-0.015660,0.009991,33.933987,11.718750
2322.000000,-0.013981,0.010044,33.925758,11.718750
2323.000000,-0.011769,0.010073,33.917381,11.718750
2324.000000,-0.011311,0.010094,33.909870,11.718750
2325.000000,-0.013981,0.010162,33.910583,11.718750
2326.000000,-0.012608,0.010176,33.916328,11.718750
2327.000000,-0.015812,0.010251,33.923485,11.718750
2328.000000,-0.015354,0.010314,33.926128,11.718750
2329.000000,-0.013828,0.010353,33.931324,11.718750
2330.000000,-0.011311,0.010345,33.944099,11.718750
2331.000000,-0.009174,0.010347,33.959232,11.718750
2332.000000,-0.007496,0.010325,33.980671,11.718750
2333.000000,-0.008717,0.010339,34.002804,11.718750
2334.000000,-0.009174,0.010349,34.028252,11.718750
2335.000000,-0.012531,0.010352,34.046459,11.718750
2336.000000,-0.011387,0.010355,34.071648,11.718750
2337.000000,-0.010472,0.010366,34.099586,11.718750
2338.000000,-0.007420,0.010341,34.129314,11.718750
2339.000000,-0.006809,0.010314,34.173626,11.718750
2340.000000,-0.007343,0.010313,34.212029,11.718750
2341.000000,-0.006428,0.010302,34.256470,11.718750
2342.000000,-0.003986,0.010266,34.304352,11.718750
2343.000000,-0.008259,0.010271,34.353798,11.718750
2344.000000,-0.008335,0.010276,34.402412,11.718750
2345.000000,-0.007801,0.010264,34.460449,11.718750
2346.000000,-0.010243,0.010274,34.520569,11.718750
2347.000000,-0.007267,0.010274,34.577011,11.718750
2348.000000,-0.008717,0.010283,34.640537,11.718750
2349.000000,-0.005131,0.010274,34.709641,11.718750
2350.000000,-0.005207,0.010252,34.780285,11.718750
2351.000000,-0.005512,0.010235,34.848545,11.718750
2352.000000,-0.010090,0.010251,34.926868,11.718750
2353.000000,-0.010472,0.010283,35.004978,11.718750
2354.000000,-0.009174,0.010309,35.082092,11.718750
2355.000000,-0.013523,0.010378,35.158726,11.718750
2356.000000,-0.010014,0.010398,35.241192,11.718750
2357.000000,-0.009403,0.010410,35.317905,11.718750
2358.000000,-0.009098,0.010406,35.402355,11.718750
2359.000000,-0.008717,0.010414,35.490734,11.718750
